ECG
1.0916117836
1.0429840704
0.9166782017
0.7361340182
0.5264536044
0.3129477628
0.1202450981
-0.0374800047
-0.1549468748
-0.2304870130
-0.2659752101
-0.2668295466
-0.2420113928
-0.2027074125
-0.1575439444
-0.1132182012
-0.0744579379
-0.0440110600
-0.0226456237
-0.0091498356
-0.0003561299
0.0062144304
0.0111172686
0.0150794369
0.0186844324
0.0223721968
0.0264402089
0.0310473191
0.0362102114
0.0418216653
0.0479513896
0.0546999560
0.0621261732
0.0702789667
0.0791973793
0.0889105705
0.0994378169
0.1107885121
0.1229621666
0.1359484079
0.1497269805
0.1642677459
0.1795316089
0.1956080217
0.2124358272
0.2298124331
0.2475421889
0.2654363863
0.2833132591
0.3009979833
0.3183226767
0.3351258632
0.3512502576
0.3665446359
0.3808647160
0.3940731577
0.4060395629
0.4166404756
0.4257593819
0.4332867101
0.4391198306
0.4431630556
0.4453276399
0.4455317798
0.4437006143
0.4396495439
0.4333032713
0.4249025809
0.4146824189
0.4028679546
0.3896745808
0.3753079137
0.3599637928
0.3438282809
0.3270776641
0.3098784522
0.2923874641
0.2747522386
0.2571107147
0.2395910552
0.2223116461
0.2053810968
0.1888982401
0.1729521320
0.1576220521
0.1429775031
0.1290782112
0.1159741261
0.1037054204
0.0923024906
0.0817859561
0.0721666600
0.0634456685
0.0556183456
0.0486514561
0.0424809652
0.0370446848
0.0322829651
0.0281386948
0.0245573008
0.0214867486
0.0188776992
0.0166845677
0.0148648984
0.0133787794
0.0121888369
0.0112602358
0.0105606790
0.0100604081
0.0097322029
0.0095513816
0.0094958007
0.0095458551
0.0096844781
0.0098971413
0.0101718548
0.0104991668
0.0108721642
0.0112864721
0.0117429371
0.0122498269
0.0127987210
0.0133804470
0.0139871727
0.0146124065
0.0152509973
0.0158989639
0.0165524053
0.0172081956
0.0178645466
0.0185210107
0.0191784804
0.0198391889
0.0205067098
0.0211859571
0.0218831853
0.0226059891
0.0233633040
0.0241654056
0.0250239102
0.0259517744
0.0269632953
0.0280741103
0.0293011973
0.0306628748
0.0321754116
0.0338157055
0.0356908190
0.0379445773
0.0407108859
0.0441137307
0.0482673692
0.0532773036
0.0592393559
0.0662394058
0.0743534134
0.0836474193
0.0941775445
0.1059899904
0.1191210386
0.1335970514
0.1494819918
0.1668214170
0.1851198160
0.2038532471
0.2225322288
0.2407017404
0.2579412213
0.2738645719
0.2881201527
0.3003907849
0.3103937502
0.3178807908
0.3226381093
0.3244863690
0.3232806936
0.3189104394
0.3113113888
0.3008190309
0.2880193135
0.2734593864
0.2576439215
0.2410351131
0.2240526776
0.2070738536
0.1904334019
0.1744236057
0.1592942702
0.1452527229
0.1324638134
0.1210499137
0.1110909179
0.1026052765
0.0954499307
0.0895259806
0.0846179586
0.0803561103
0.0762163938
0.0715204799
0.0654357522
0.0569753070
0.0449980832
0.0282106145
0.0052959188
-0.0222261461
-0.0495912200
-0.0713059707
-0.0812627244
-0.0727394651
-0.0383998350
0.0292668362
0.1343132786
0.2774824581
0.4532783538
0.6494511516
0.8469972436
1.0201592287
1.1369387459
1.1746812312
1.1305167965
1.0110871416
0.8319031799
0.6173450383
0.4006055001
0.2086913307
0.0509724199
-0.0659933169
-0.1400240956
-0.1733141715
-0.1724336365
-0.1471610139
-0.1070774349
-0.0617262881
-0.0183020733
0.0184443598
0.0462058121
0.0651187351
0.0776915942
0.0862552699
0.0919911102
0.0960215672
0.0992482080
0.1023517147
0.1057918842
0.1098076286
0.1144169746
0.1194456999
0.1249856951
0.1311565105
0.1380127191
0.1456012178
0.1539612033
0.1631236345
0.1731110275
0.1839381440
0.1956120698
0.2081322147
0.2214905692
0.2357945163
0.2510351298
0.2670587259
0.2837124190
0.3008441214
0.3183025433
0.3359371930
0.3535983765
0.3711371980
0.3884055597
0.4052561615
0.4215425015
0.4371188757
0.4518403780
0.4655629003
0.4781431326
0.4894385626
0.4993074762
0.5076090253
0.5142043654
0.5189564826
0.5217291943
0.5223856648
0.5207815443
0.5169954129
0.5111814093
0.5034933714
0.4940848359
0.4831090388
0.4707189153
0.4570670995
0.4423059248
0.4265874235
0.4100633273
0.3928850667
0.3752037715
0.3571702705
0.3389350917
0.3206484622
0.3024603082
0.2845202549
0.2669776268
0.2499814472
0.2336804009
0.2182221169
0.2037492521
0.1902878736
0.1778085896
0.1662948742
0.1557275292
0.1460846846
0.1373417983
0.1294716559
0.1224443713
0.1162273860
0.1107854697
0.1060807199
0.1020725620
0.0987177496
0.0959703638
0.0937818140
0.0921008375
0.0908734994
0.0900431928
0.0895506388
0.0893338863
0.0893455789
0.0895831162
0.0900241861
0.0906443623
0.0914185063
0.0923229279
0.0933354942
0.0944356289
0.0956043130
0.0968240844
0.0980790380
0.0993548258
0.1006386566
0.1019192964
0.1031870683
0.1044338520
0.1056530847
0.1068397602
0.1079904296
0.1091056204
0.1102444647
0.1113997072
0.1125315187
0.1136057774
0.1145940696
0.1154736886
0.1162276359
0.1168447617
0.1173240405
0.1176753046
0.1179143765
0.1180627863
0.1181477715
0.1182022776
0.1182649573
0.1183801711
0.1185979871
0.1189741811
0.1195702363
0.1204533437
0.1216964018
0.1233780167
0.1255825022
0.1283998797
0.1319258781
0.1362619340
0.1415151916
0.1477985027
0.1552304267
0.1639352307
0.1740428892
0.1857079670
0.1990514970
0.2138339296
0.2297565883
0.2465099750
0.2637740574
0.2812182695
0.2985015114
0.3152721495
0.3311680161
0.3458164099
0.3588340956
0.3698273040
0.3783917321
0.3841125431
0.3865642708
0.3853859582
0.3807947855
0.3732037973
0.3630182682
0.3506357030
0.3364458364
0.3208306335
0.3041642892
0.2868132287
0.2691361073
0.2514838315
0.2342006016
0.2176243335
0.2020852568
0.1879058307
0.1752565790
0.1638885151
0.1540055278
0.1457058633
0.1389171457
0.1333963765
0.1287299352
0.1243335787
0.1194524415
0.1131610362
0.1043632526
0.0918429665
0.0744018707
0.0515125259
0.0244621849
-0.0035695780
-0.0275108671
-0.0403985938
-0.0353357534
-0.0033945003
0.0632907891
0.1682413747
0.3106341671
0.4853016927
0.6836182075
0.8861757884
1.0565433511
1.1669700846
1.2006614558
1.1517792089
1.0254413660
0.8397231547
0.6265296422
0.4145027906
0.2250081662
0.0721348854
-0.0373043850
-0.1028095432
-0.1251566274
-0.1158030964
-0.0863976507
-0.0465987732
-0.0040747292
0.0354964331
0.0684268833
0.0930190027
0.1095648748
0.1203208036
0.1277870912
0.1329910840
0.1367586652
0.1397844950
0.1426320102
0.1457334240
0.1493897263
0.1537706837
0.1589148393
0.1647295127
0.1710340469
0.1779728911
0.1856501183
0.1941110871
0.2033891892
0.2135058495
0.2244705261
0.2362807100
0.2489219255
0.2623677302
0.2765797144
0.2915075020
0.3071715166
0.3235670457
0.3404874847
0.3577297041
0.3750973385
0.3924007862
0.4094572094
0.4260905340
0.4421314500
0.4574174110
0.4717926347
0.4851081024
0.4972215594
0.5079975149
0.5173072417
0.5250287767
0.5310469206
0.5352532378
0.5375460567
0.5378304696
0.5360182777
0.5319183610
0.5255567059
0.5171535302
0.5069222499
0.4950694764
0.4817944311
0.4672881892
0.4517348059
0.4353115313
0.4181888140
0.4005303008
0.3824928365
0.3642264643
0.3458744257
0.3275731602
0.3094523058
0.2916346985
0.2742363727
0.2573665609
0.2411276939
0.2256154007
0.2109185085
0.1971190428
0.1842922273
0.1725063527
0.1617833054
0.1520663172
0.1432941611
0.1354073722
0.1283482469
0.1220608117
0.1164907763
0.1115855995
0.1072945021
0.1035684661
0.1003602355
0.0976243155
0.0953169733
0.0933962374
0.0918218980
0.0905555071
0.0895603779
0.0888015856
0.0882459668
0.0878621198
0.0876204044
0.0874929420
0.0874536157
0.0874780703
0.0875440480
0.0876466193
0.0877832505
0.0879464855
0.0881294391
0.0883257971
0.0885300179
0.0887376550
0.0889448362
0.0891482467
0.0893451432
0.0895333528
0.0897112740
0.0898778762
0.0900326996
0.0901758554
0.0903080259
0.0904304644
0.0905449949
0.0906540127
0.0907604837
0.0908679452
0.0909805051
0.0911028425
0.0912413467
0.0914082631
0.0916219501
0.0919096189
0.0923074811
0.0928607494
0.0936236370
0.0946595566
0.0960415506
0.0978517863
0.1001814315
0.1031306551
0.1068086264
0.1113335154
0.1168324929
0.1234417306
0.1313064005
0.1406125667
0.1516319287
0.1642213019
0.1781544469
0.1931887676
0.2090653119
0.2255087709
0.2422274795
0.2589134163
0.2752422033
0.2908731061
0.3054490339
0.3185965398
0.3299258200
0.3390307146
0.3454883538
0.3488583037
0.3486835342
0.3447227138
0.3373892112
0.3271911774
0.3146137146
0.3001188768
0.2841456696
0.2671100500
0.2494049265
0.2314001594
0.2134425602
0.1958558922
0.1789408702
0.1629751605
0.1482133810
0.1348871011
0.1231889845
0.1128587575
0.1039164431
0.0964328402
0.0902680760
0.0850716063
0.0802822153
0.0751280396
0.0686266391
0.0595849266
0.0465991431
0.0281516261
0.0041729457
-0.0233274647
-0.0507992393
-0.0731615419
-0.0838030665
-0.0745820367
-0.0375908407
0.0333074053
0.1447247590
0.2961184986
0.4794420163
0.6791448185
0.8721725254
1.0285802283
1.1205314185
1.1320119401
1.0596677372
0.9128169767
0.7134500477
0.4958994314
0.2902719979
0.1126118869
-0.0260294366
-0.1203274418
-0.1706844765
-0.1832128306
-0.1662641911
-0.1305748211
-0.0869420087
-0.0435210673
-0.0058253354
0.0232738235
0.0435470208
0.0570939156
0.0659063733
0.0714445966
0.0749505712
0.0774391649
0.0796981269
0.0822880886
0.0855425630
0.0895679449
0.0942435109
0.0992977458
0.1049288788
0.1112619562
0.1183507382
0.1262381658
0.1349567580
0.1445286125
0.1549654051
0.1662683902
0.1784284003
0.1914258467
0.2052307188
0.2198518091
0.2353458365
0.2515360593
0.2682319657
0.2852470730
0.3023989276
0.3195091046
0.3364032087
0.3529108731
0.3688657605
0.3841055624
0.3984719993
0.4118108209
0.4239718060
0.4348087623
0.4441800821
0.4519514056
0.4579936190
0.4621816765
0.4643945618
0.4645152877
0.4623779723
0.4578369156
0.4510854657
0.4423339461
0.4317869745
0.4196434627
0.4060966168
0.3913339369
0.3755372173
0.3588825466
0.3415403075
0.3236751768
0.3054461255
0.2870064189
0.2685036164
0.2500795715
0.2318704319
0.2140066395
0.1966129303
0.1798075308
0.1636976967
0.1483828587
0.1339567359
0.1205073418
0.1081169837
0.0968517703
0.0866771712
0.0775243075
0.0693281179
0.0620252940
0.0555542800
0.0498552732
0.0448702236
0.0405428342
0.0368185608
0.0336446120
0.0309699493
0.0287452871
0.0269230925
0.0254575857
0.0243047394
0.0234222796
0.0227696849
0.0223081866
0.0220013352
0.0218186422
0.0217332326
0.0217199604
0.0217554312
0.0218180036
0.0218910247
0.0219821442
0.0220882624
0.0222033530
0.0223221626
0.0224402103
0.0225537882
0.0226599612
0.0227565669
0.0228422158
0.0229162911
0.0229789488
0.0230311177
0.0230744994
0.0231115683
0.0231455716
0.0231805293
0.0232212341
0.0232732515
0.0233427470
0.0234351928
0.0235560953
0.0237117283
0.0239091380
0.0241561438
0.0244613377
0.0247784626
0.0250593080
0.0254281015
0.0260087849
0.0269195060
0.0282726186
0.0301746827
0.0327264646
0.0360229366
0.0401532771
0.0452008706
0.0512433078
0.0583523857
0.0665941071
0.0760286811
0.0867105230
0.0986882541
0.1120047019
0.1266969099
0.1427564688
0.1598413398
0.1774579109
0.1951290115
0.2123950884
0.2288142056
0.2439620451
0.2574319060
0.2688347050
0.2777989763
0.2839708715
0.2870141600
0.2866155352
0.2827471920
0.2757205166
0.2658802878
0.2535881563
0.2392226445
0.2231791473
0.2058699313
0.1877241350
0.1691877692
0.1507237165
0.1328117314
0.1159133661
0.1000560153
0.0854901256
0.0724845294
0.0611830228
0.0516043646
0.0436422770
0.0370654452
0.0315175178
0.0265171063
0.0214577855
0.0156080933
0.0081115309
-0.0019699013
-0.0162493256
-0.0362325982
-0.0615466046
-0.0898640067
-0.1169032426
-0.1364285268
-0.1404974426
-0.1230163913
-0.0730551356
0.0169726531
0.1482839393
0.3157262585
0.5077769413
0.7065433822
0.8877330835
1.0185178104
1.0730690234
1.0406076071
0.9254384834
0.7469506113
0.5368051053
0.3234990458
0.1298140700
-0.0285319901
-0.1430243599
-0.2123513220
-0.2408410296
-0.2346999244
-0.2061820200
-0.1659575127
-0.1224678435
-0.0819256978
-0.0483150053
-0.0233909400
-0.0064406989
0.0049548392
0.0123367377
0.0169985493
0.0200383358
0.0223580207
0.0246633715
0.0274640000
0.0310733620
0.0356087577
0.0409913313
0.0469460712
0.0532358269
0.0602048392
0.0679390044
0.0764882988
0.0858888666
0.0961630207
0.1073192418
0.1193521791
0.1322426500
0.1459576401
0.1604503033
0.1756599617
0.1915121056
0.2079280294
0.2249259458
0.2423290739
0.2599024983
0.2774222060
0.2946749758
0.3114584763
0.3275812916
0.3428629223
0.3571337849
0.3702352120
0.3820194522
0.3923496705
0.4010999475
0.4081552802
0.4134115816
0.4167756807
0.4181653228
0.4175091690
0.4147398799
0.4095869851
0.4021288374
0.3926259771
0.3813281574
0.3684743444
0.3542927174
0.3390006683
0.3228047664
0.3059000380
0.2884699999
0.2706873531
0.2527140115
0.2347011019
0.2167889639
0.1991071504
0.1817744268
0.1648987717
0.1485773767
0.1328966460
0.1179321971
0.1037488601
0.0904006783
0.0779309078
0.0663720176
0.0557456898
0.0460628193
0.0373236287
0.0295189078
0.0225933434
0.0164777121
0.0111056208
0.0064135066
0.0023406916
-0.0011692713
-0.0041684667
-0.0067058185
-0.0088273295
-0.0105761720
-0.0119926882
-0.0131143902
-0.0139759595
-0.0146092479
-0.0150432766
-0.0153042366
-0.0154154888
-0.0153975638
-0.0152681621
-0.0150421538
-0.0147315789
-0.0143456471
-0.0138907379
-0.0133697443
-0.0127521896
-0.0120357016
-0.0112391314
-0.0103789204
-0.0094691002
-0.0085213838
-0.0075479523
-0.0065619656
-0.0055743686
-0.0045936962
-0.0036260734
-0.0026752157
-0.0017424286
-0.0008266081
0.0000757600
0.0009705993
0.0018662433
0.0027734355
0.0037053287
0.0046774860
0.0057078798
0.0068168928
0.0080273170
0.0093643544
0.0108556168
0.0125311258
0.0144233126
0.0165670183
0.0189882188
0.0216931139
0.0248960675
0.0288220172
0.0336650503
0.0395834381
0.0466994311
0.0550994256
0.0648339656
0.0759177428
0.0883295964
0.1020125137
0.1168736292
0.1327842254
0.1495797323
0.1671268432
0.1851898252
0.2030583055
0.2200709767
0.2356507270
0.2493046401
0.2606239955
0.2692842679
0.2750451278
0.2777504414
0.2773282702
0.2737908715
0.2672346403
0.2578372413
0.2458562791
0.2315935685
0.2155400039
0.1983166261
0.1804811982
0.1625267982
0.1448818196
0.1279099709
0.1119102762
0.0971170745
0.0837000203
0.0717640832
0.0613495483
0.0524320157
0.0449224009
0.0387315580
0.0336393789
0.0291636532
0.0246672924
0.0193586953
0.0122917480
0.0023658238
-0.0116742169
-0.0312389596
-0.0571887125
-0.0857280950
-0.1111196867
-0.1270970532
-0.1268648576
-0.1030988646
-0.0479459398
0.0462598841
0.1809434913
0.3501535030
0.5417830011
0.7375702936
0.9130989148
1.0377976247
1.0777367361
1.0277836207
0.9049650301
0.7290214665
0.5220902871
0.3087057047
0.1157987877
-0.0360044385
-0.1447918086
-0.2113217570
-0.2389232497
-0.2334984117
-0.2035231899
-0.1600460219
-0.1150688196
-0.0741860205
-0.0399961487
-0.0138417238
0.0042017544
0.0153258060
0.0219889710
0.0271271916
0.0313453441
0.0351091491
0.0388257160
0.0428061809
0.0472657067
0.0523234829
0.0580027260
0.0642486250
0.0711210177
0.0787005636
0.0870438654
0.0961949198
0.1061851178
0.1170332463
0.1287457929
0.1413172574
0.1547296634
0.1689525022
0.1839426643
0.1996444342
0.2159894903
0.2329442669
0.2504878813
0.2684053585
0.2864796654
0.3045023958
0.3222737698
0.3396026345
0.3563064631
0.3722113558
0.3871520392
0.4009718666
0.4135228179
0.4246654995
0.4342691445
0.4422116125
0.4483793899
0.4526675895
0.4549799530
0.4552293646
0.4533024730
0.4490164604
0.4425423783
0.4340954406
0.4238844435
0.4121117658
0.3989733685
0.3846587952
0.3693511718
0.3532272065
0.3364571900
0.3192049954
0.3016280781
0.2838774762
0.2660978097
0.2484272814
0.2309976763
0.2139343620
0.1973562882
0.1813759872
0.1660995737
0.1516267447
0.1380507797
0.1254585369
0.1139290734
0.1035102651
0.0941542709
0.0857964946
0.0783742885
0.0718266567
0.0660942550
0.0611193909
0.0568460239
0.0532197648
0.0501878767
0.0476992740
0.0457045231
0.0441558422
0.0430071011
0.0422138214
0.0417331764
0.0415239914
0.0415467432
0.0417635605
0.0421382236
0.0426361648
0.0432244679
0.0438718686
0.0445487563
0.0452291616
0.0459115230
0.0465984915
0.0472861731
0.0479713100
0.0486512807
0.0493241000
0.0499884190
0.0506435252
0.0512893422
0.0519264300
0.0525559851
0.0531798399
0.0538004635
0.0544209609
0.0550450739
0.0556771801
0.0563222938
0.0569860653
0.0576747813
0.0583953649
0.0591553755
0.0599630086
0.0608270962
0.0617571060
0.0627539616
0.0637890338
0.0649042142
0.0661566599
0.0676076307
0.0693224907
0.0713707076
0.0738258533
0.0767656036
0.0802717383
0.0844301412
0.0893308000
0.0950678066
0.1017393566
0.1094477498
0.1182993898
0.1284047844
0.1398785451
0.1528418974
0.1677390869
0.1844097632
0.2022742949
0.2207891309
0.2394468011
0.2577759155
0.2753423782
0.2917525220
0.3066497337
0.3197134804
0.3306593099
0.3392388505
0.3452398110
0.3484859807
0.3488372294
0.3461895073
0.3404748454
0.3316613549
0.3198326499
0.3055709493
0.2895292582
0.2722965966
0.2544043284
0.2363261616
0.2184781480
0.2012186836
0.1848485082
0.1696107055
0.1556907034
0.1432162735
0.1322575317
0.1228258253
0.1152278921
0.1100702399
0.1060952909
0.1020842825
0.0970185541
0.0900795470
0.0806488046
0.0683079720
0.0528387966
0.0342231275
0.0126429159
-0.0115197851
-0.0377760899
-0.0625046472
-0.0726692103
-0.0569669357
-0.0078187791
0.0786305044
0.2025123603
0.3602344352
0.5444805760
0.7441404582
0.9352146769
1.0804994037
1.1539750074
1.1433556721
1.0500868391
0.8893318824
0.6865574208
0.4710025595
0.2675054908
0.0937634829
-0.0396671209
-0.1293709018
-0.1758692377
-0.1841140405
-0.1661211196
-0.1322288209
-0.0909387250
-0.0489156468
-0.0109876357
0.0198540241
0.0424548144
0.0576282504
0.0680929030
0.0752621146
0.0801411161
0.0835990907
0.0863691733
0.0890482185
0.0920958363
0.0958351627
0.1004529046
0.1059995186
0.1123894112
0.1194009411
0.1268487259
0.1350236475
0.1440009047
0.1538200472
0.1645069430
0.1760737779
0.1885190561
0.2018275998
0.2159705495
0.2309053638
0.2465758192
0.2629120107
0.2798303512
0.2972485902
0.3151609212
0.3333778630
0.3516763898
0.3698439351
0.3876781939
0.4049861734
0.4215849260
0.4373019629
0.4519752544
0.4654532300
0.4775947784
0.4882692472
0.4973564435
0.5047466332
0.5103405416
0.5140493530
0.5157947110
0.5155087182
0.5130681385
0.5082017336
0.5011036055
0.4920182512
0.4811800640
0.4688133334
0.4551322453
0.4403408816
0.4246332206
0.4081931369
0.3911944013
0.3738010373
0.3561693117
0.3384463490
0.3207693749
0.3032656774
0.2860524459
0.2692367658
0.2529156190
0.2371758834
0.2220943334
0.2077376395
0.1941623685
0.1814149834
0.1695318435
0.1585392044
0.1484532179
0.1392799320
0.1310153336
0.1236519171
0.1171439891
0.1114289224
0.1064467681
0.1021402550
0.0984547905
0.0953384596
0.0927416119
0.0906141808
0.0889073765
0.0875750803
0.0865738517
0.0858629283
0.0854042257
0.0851623377
0.0851045361
0.0852007709
0.0854236701
0.0857485398
0.0861533644
0.0866188061
0.0871282054
0.0876675808
0.0882256288
0.0887937244
0.0893659202
0.0899395297
0.0905099924
0.0910659744
0.0915968834
0.0920932619
0.0925467880
0.0929507610
0.0933037588
0.0936075917
0.0938652105
0.0940806880
0.0942592313
0.0944071827
0.0945320196
0.0946423549
0.0947479365
0.0948596477
0.0949895070
0.0951506679
0.0953574195
0.0956251859
0.0959705264
0.0964111357
0.0969658027
0.0976287035
0.0984591713
0.0995661879
0.1010573239
0.1030387383
0.1056151790
0.1088899824
0.1129646072
0.1179345528
0.1238913385
0.1309250436
0.1391243358
0.1485764714
0.1593672953
0.1715812412
0.1853412349
0.2007377053
0.2174052664
0.2349391373
0.2529418963
0.2710234812
0.2888011891
0.3058996763
0.3219509583
0.3365944101
0.3494767657
0.3602521187
0.3685819218
0.3741349870
0.3765874856
0.3756226322
0.3709410518
0.3628669136
0.3519646171
0.3387669788
0.3237730799
0.3074482026
0.2902238849
0.2724979278
0.2546343954
0.2369636144
0.2197821750
0.2033529299
0.1879049952
0.1736337496
0.1607008351
0.1492341566
0.1393194155
0.1307622900
0.1234604857
0.1172697634
0.1118575871
0.1067031242
0.1010972452
0.0941425241
0.0847532381
0.0716553677
0.0533864870
0.0289578549
0.0007953915
-0.0268260879
-0.0486388514
-0.0583822858
-0.0488028961
-0.0116623815
0.0591081995
0.1683335669
0.3166830027
0.4973934704
0.6962696143
0.8916837600
1.0546146811
1.1556765347
1.1773030395
1.1146657177
0.9766003252
0.7856068511
0.5718857395
0.3606858189
0.1723142310
0.0199927698
-0.0901429232
-0.1562013069
-0.1818498692
-0.1776183579
-0.1529283491
-0.1159786106
-0.0737450674
-0.0319807938
0.0047839864
0.0332419005
0.0524874583
0.0652435401
0.0735099008
0.0789240493
0.0827863130
0.0860598373
0.0893705864
0.0930073424
0.0969285491
0.1011890299
0.1059447682
0.1112536826
0.1171680998
0.1237347545
0.1309947891
0.1389837542
0.1477316372
0.1572633510
0.1675986641
0.1787517673
0.1907329845
0.2035880455
0.2172841046
0.2317454241
0.2468887164
0.2626231435
0.2788503172
0.2954642992
0.3123516010
0.3293911837
0.3464544584
0.3634052860
0.3800999771
0.3963872921
0.4121084413
0.4270970846
0.4411793319
0.4541737428
0.4658913268
0.4761355431
0.4847025515
0.4914476473
0.4963192311
0.4992765466
0.5002960342
0.4993715356
0.4965141087
0.4917519420
0.4851303544
0.4767117948
0.4665758429
0.4548192085
0.4415557317
0.4269163831
0.4110492636
0.3941196045
0.3763097673
0.3578192440
0.3388646569
0.3196797586
0.3005154322
0.2815346073
0.2628112223
0.2444754144
0.2266443385
0.2094221356
0.1928998929
0.1771546364
0.1622492632
0.1482336022
0.1351444690
0.1230056655
0.1118279800
0.1016091875
0.0923340491
0.0839743124
0.0764887115
0.0698229669
0.0639097856
0.0586688607
0.0540431225
0.0500233225
0.0465545243
0.0435833324
0.0410592267
0.0389345628
0.0371645719
0.0357073608
0.0345239118
0.0335780829
0.0328366078
0.0322691231
0.0318490183
0.0315535954
0.0313630412
0.0312599811
0.0312296951
0.0312603368
0.0313429358
0.0314714096
0.0316496183
0.0318743250
0.0321338012
0.0324175764
0.0327164378
0.0330224307
0.0333288581
0.0336302809
0.0339225179
0.0342026457
0.0344689990
0.0347211699
0.0349600090
0.0351876242
0.0354073815
0.0356239049
0.0358430662
0.0360715989
0.0363169738
0.0365878842
0.0368942814
0.0372473744
0.0376596301
0.0381447733
0.0387177867
0.0393949108
0.0401936441
0.0411327428
0.0421841936
0.0433718389
0.0448670317
0.0468289064
0.0494016700
0.0527146019
0.0568820540
0.0620034506
0.0681632882
0.0754311361
0.0838616358
0.0934945013
0.1043545191
0.1164515586
0.1297811106
0.1443245395
0.1600517422
0.1770976662
0.1950554674
0.2132738814
0.2311616504
0.2481875234
0.2638802559
0.2778286102
0.2896813554
0.2991472670
0.3059951275
0.3100537259
0.3112118579
0.3094183259
0.3046819391
0.2970715131
0.2867158705
0.2737993765
0.2586477033
0.2418519233
0.2239831619
0.2055551342
0.1870241254
0.1687876622
0.1511836694
0.1344924605
0.1189369386
0.1046825968
0.0918375179
0.0804523745
0.0705204289
0.0619775333
0.0547021296
0.0485193761
0.0434202793
0.0387885280
0.0336868895
0.0271866042
0.0183673858
0.0063174210
-0.0098666301
-0.0310796346
-0.0580160124
-0.0874820268
-0.1133426845
-0.1293009670
-0.1289433770
-0.1057399214
-0.0530425460
0.0359828938
0.1658572317
0.3303643325
0.5177530125
0.7120834946
0.8932274247
1.0368678715
1.1144993269
1.1003833050
1.0039651393
0.8471212807
0.6517680533
0.4398548516
0.2333641408
0.0543106582
-0.0823717673
-0.1765314931
-0.2302474140
-0.2477817407
-0.2355800000
-0.2022710342
-0.1586643919
-0.1151138537
-0.0759954117
-0.0436555389
-0.0192417326
-0.0027010226
0.0072202333
0.0129763491
0.0173065509
0.0207047271
0.0236406299
0.0265138596
0.0296320157
0.0332106967
0.0373735003
0.0421520232
0.0474930278
0.0534322148
0.0600546925
0.0674167195
0.0755631295
0.0845273315
0.0943313099
0.1049856240
0.1164894086
0.1288303736
0.1419848042
0.1559175616
0.1705822842
0.1859216417
0.2018714010
0.2184669557
0.2355760752
0.2529874544
0.2704979556
0.2879126085
0.3050446102
0.3217153251
0.3377542850
0.3529991893
0.3672959044
0.3804984644
0.3924690707
0.4030780919
0.4122040643
0.4197336912
0.4255618437
0.4295915599
0.4317340456
0.4319086738
0.4300427866
0.4259677168
0.4197162785
0.4114893286
0.4014818281
0.3898831754
0.3768772680
0.3626425026
0.3473517749
0.3311724801
0.3142665119
0.2967902638
0.2788946280
0.2607249960
0.2424212584
0.2241178048
0.2059435241
0.1880218044
0.1704705327
0.1534020953
0.1369233775
0.1211357638
0.1061351380
0.0920118826
0.0788508797
0.0667243563
0.0556202629
0.0454850238
0.0362668895
0.0279155591
0.0203818268
0.0136174237
0.0075748579
0.0022076117
-0.0025298142
-0.0066819000
-0.0102921077
-0.0134028803
-0.0160556422
-0.0182907993
-0.0201477386
-0.0216648285
-0.0228794187
-0.0238278404
-0.0245454058
-0.0250664087
-0.0254241241
-0.0256508085
-0.0257776994
-0.0258349880
-0.0258332427
-0.0257716090
-0.0256583503
-0.0255008763
-0.0253051329
-0.0250763127
-0.0248190323
-0.0245373323
-0.0242346770
-0.0239139548
-0.0235774778
-0.0232269821
-0.0228636278
-0.0224879987
-0.0221001026
-0.0216993712
-0.0212846601
-0.0208542487
-0.0204058406
-0.0199365628
-0.0194429667
-0.0189210273
-0.0183661435
-0.0177731384
-0.0171362585
-0.0164492409
-0.0157379133
-0.0149968985
-0.0141795662
-0.0132391371
-0.0121255609
-0.0107845150
-0.0091570416
-0.0071798671
-0.0047855400
-0.0019024308
0.0015452675
0.0056375399
0.0104585491
0.0160966358
0.0226443182
0.0301982925
0.0388594327
0.0487327905
0.0599275955
0.0725580606
0.0868228228
0.1025220466
0.1192454803
0.1365922766
0.1541709923
0.1715995888
0.1885054318
0.2045269033
0.2193183350
0.2325451241
0.2438820723
0.2530133853
0.2596326736
0.2634429517
0.2641566387
0.2614955578
0.2552513068
0.2457638172
0.2335800212
0.2192163058
0.2031583855
0.1858613031
0.1677494291
0.1492164619
0.1306254280
0.1123086817
0.0945679051
0.0776741084
0.0618676297
0.0473581350
0.0343246181
0.0229091687
0.0129037310
0.0042832095
-0.0029236788
-0.0088812220
-0.0139472482
-0.0186728104
-0.0238018931
-0.0302714102
-0.0392112054
-0.0519440516
-0.0700350109
-0.0944594415
-0.1223172937
-0.1493544827
-0.1705452535
-0.1800921810
-0.1714261701
-0.1372064556
-0.0693561712
0.0377521948
0.1825957555
0.3580827751
0.5517094823
0.7455600703
0.9163066966
1.0352100961
1.0701216561
1.0157927876
0.8905197044
0.7144405459
0.5090071532
0.2969850689
0.1024535377
-0.0528305455
-0.1651602601
-0.2351572572
-0.2658961185
-0.2632132768
-0.2357070166
-0.1946448073
-0.1501917257
-0.1080389681
-0.0719906029
-0.0441741119
-0.0250403904
-0.0133637473
-0.0062419052
-0.0008205293
0.0033466037
0.0068710334
0.0102450177
0.0138391120
0.0179034734
0.0225686372
0.0278460185
0.0336536080
0.0400647690
0.0471633302
0.0550050332
0.0636343648
0.0730845567
0.0833775859
0.0945241742
0.1065237886
0.1193646413
0.1330236894
0.1474666351
0.1626479256
0.1785107535
0.1950713683
0.2123085374
0.2300039614
0.2479449183
0.2659269611
0.2837539182
0.3012381122
0.3182015895
0.3344752603
0.3498983120
0.3643182071
0.3775906832
0.3895797536
0.4001577065
0.4092051054
0.4166107891
0.4222718719
0.4260937429
0.4279900669
0.4278827836
0.4257021083
0.4212765527
0.4146277465
0.4059822875
0.3955590594
0.3835692246
0.3702162240
0.3556957774
0.3401958831
0.3238968182
0.3069711384
0.2895835663
0.2718902612
0.2540392786
0.2361709379
0.2184174629
0.2009029235
0.1837436441
0.1670482277
0.1509175562
0.1354447899
0.1207153682
0.1068070088
0.0937897082
0.0817257417
0.0706696631
0.0606547115
0.0516389800
0.0435596149
0.0363557050
0.0299682579
0.0243402000
0.0194163768
0.0151435524
0.0114704099
0.0083475514
0.0057275788
0.0035657077
0.0018194259
0.0004481429
-0.0005868130
-0.0013221945
-0.0017928356
-0.0020316512
-0.0020696375
-0.0019358717
-0.0016575123
-0.0012597988
-0.0007660518
-0.0001976730
0.0004258547
0.0010935268
0.0018105670
0.0025690220
0.0033607790
0.0041785496
0.0050158697
0.0058670994
0.0067274233
0.0075928500
0.0084602125
0.0093271020
0.0101912835
0.0110509774
0.0119052265
0.0127540944
0.0135988202
0.0144415037
0.0152850686
0.0161332633
0.0169906604
0.0178626565
0.0187554728
0.0196761548
0.0206325719
0.0216334183
0.0226882121
0.0238072958
0.0248960088
0.0259442768
0.0271117034
0.0285471896
0.0303887455
0.0327634905
0.0357876535
0.0395665724
0.0441946800
0.0497553512
0.0563209650
0.0639530078
0.0727020755
0.0826078733
0.0936992157
0.1059940263
0.1194993385
0.1342112945
0.1501151461
0.1671733518
0.1850834047
0.2033117073
0.2213459711
0.2387056734
0.2549420579
0.2696381343
0.2824086782
0.2929002315
0.3007911021
0.3057913641
0.3076428574
0.3061181078
0.3012083125
0.2932448680
0.2825969243
0.2696448537
0.2547790352
0.2383997975
0.2209173642
0.2027519243
0.1843336471
0.1661026827
0.1485091617
0.1319390396
0.1163489270
0.1020499517
0.0893253033
0.0783288516
0.0690851470
0.0614894201
0.0553075815
0.0501762225
0.0456026144
0.0409647090
0.0355111383
0.0283612145
0.0185049619
0.0047292984
-0.0143173005
-0.0385496825
-0.0660287524
-0.0929598609
-0.1136927608
-0.1207216070
-0.1071570803
-0.0645652179
0.0157399506
0.1365430218
0.2946963105
0.4811198491
0.6808013881
0.8730652166
1.0264390937
1.1117985879
1.1139815943
1.0319320002
0.8786996850
0.6803079354
0.4656229215
0.2601204014
0.0825483943
-0.0554042484
-0.1491078435
-0.2003437925
-0.2121937746
-0.1956203896
-0.1616436326
-0.1193360910
-0.0758231718
-0.0362828947
-0.0039458086
0.0199050082
0.0362482863
0.0475052935
0.0551287442
0.0603400646
0.0641667890
0.0674425599
0.0708071274
0.0747063501
0.0793921943
0.0849227344
0.0911621529
0.0977919491
0.1048913922
0.1126790575
0.1212084891
0.1305216583
0.1406490019
0.1516102207
0.1634142487
0.1760584797
0.1895287344
0.2037992605
0.2188327326
0.2345802522
0.2510024151
0.2681123872
0.2857448415
0.3037116988
0.3218292752
0.3399182825
0.3578038278
0.3753154138
0.3922869387
0.4085566960
0.4239673749
0.4383660599
0.4516042312
0.4635377643
0.4740269304
0.4829363958
0.4901352228
0.4954968054
0.4988972852
0.5001891239
0.4991113254
0.4957690218
0.4903408127
0.4830020747
0.4739246997
0.4632770931
0.4512241737
0.4379273741
0.4235446403
0.4082304318
0.3921357220
0.3754079975
0.3581912587
0.3406260195
0.3228493072
0.3049946629
0.2871921413
0.2695683103
0.2522462519
0.2353455612
0.2189823470
0.2032692319
0.1883154349
0.1742293534
0.1611190644
0.1490656629
0.1380233907
0.1279378608
0.1187589427
0.1104377504
0.1029266424
0.0961792222
0.0901503373
0.0847960801
0.0800737877
0.0759420414
0.0723606674
0.0692907363
0.0666945633
0.0645357082
0.0627789754
0.0613904139
0.0603373171
0.0595882231
0.0591129147
0.0588824190
0.0588690079
0.0590461213
0.0593853676
0.0598555394
0.0604311211
0.0611132910
0.0618932458
0.0627598099
0.0637023461
0.0647107642
0.0657755208
0.0668876193
0.0680386098
0.0692205895
0.0704262022
0.0716486386
0.0728816363
0.0741194796
0.0753569997
0.0765895745
0.0778131291
0.0790241349
0.0802196106
0.0813971213
0.0825547794
0.0836912437
0.0848057657
0.0859006479
0.0869933031
0.0880935951
0.0892099699
0.0903604317
0.0915725429
0.0928834242
0.0943397544
0.0959977705
0.0979232677
0.1001915995
0.1028876774
0.1061059713
0.1099505092
0.1145348773
0.1199822201
0.1264252402
0.1340061983
0.1428798206
0.1533549429
0.1654495103
0.1789909598
0.1937868712
0.2096249673
0.2262730993
0.2434782791
0.2609660570
0.2784419782
0.2955917383
0.3120813857
0.3275573435
0.3416461899
0.3539546458
0.3640695750
0.3715579840
0.3759670222
0.3768239423
0.3738835305
0.3675636231
0.3583720258
0.3467925979
0.3332852523
0.3182859552
0.3022067264
0.2854356392
0.2683368204
0.2512504501
0.2344927623
0.2183560440
0.2031086271
0.1889940303
0.1762302488
0.1650111638
0.1553503526
0.1470055393
0.1400688768
0.1344529651
0.1298610427
0.1257869865
0.1215153123
0.1161211741
0.1084703647
0.0972549522
0.0812824166
0.0597790523
0.0336806833
0.0058200907
-0.0190729880
-0.0343718584
-0.0325221930
-0.0061302437
0.0543692949
0.1538668264
0.2920709257
0.4635083561
0.6575265763
0.8586232775
1.0354792384
1.1555907583
1.1991047506
1.1589071174
1.0406227434
0.8621770365
0.6511917310
0.4365367527
0.2404188762
0.0779968485
-0.0426186112
-0.1198494089
-0.1531115921
-0.1524149604
-0.1291620751
-0.0929529900
-0.0515852517
-0.0110538998
0.0244485337
0.0525320240
0.0726090535
0.0859229128
0.0954988409
0.1026876413
0.1081075781
0.1123138327
0.1157993951
0.1189950635
0.1222694445
0.1259289530
0.1302178121
0.1353180535
0.1413495170
0.1483698507
0.1563745110
0.1652967629
0.1750076794
0.1853230106
0.1963442074
0.2082023102
0.2208983341
0.2344177235
0.2487303519
0.2637905220
0.2795369658
0.2958928445
0.3127657485
0.3300477016
0.3476169377
0.3653406513
0.3830711764
0.4006452760
0.4178841225
0.4346449104
0.4508254548
0.4661827872
0.4804905047
0.4935462537
0.5051717303
0.5152126797
0.5235388967
0.5300442255
0.5346465597
0.5372878423
0.5379340656
0.5365752716
0.5332255514
0.5279230457
0.5207299446
0.5117324876
0.5010409636
0.4887897109
0.4750930590
0.4600233441
0.4438140424
0.4266963607
0.4088879028
0.3905926700
0.3720010607
0.3532898709
0.3346222934
0.3161479186
0.2980027341
0.2803091247
0.2631758725
0.2466981570
0.2309575549
0.2160220400
0.2019459835
0.1887701540
0.1765217172
0.1652142361
0.1548675359
0.1455265848
0.1371339409
0.1296247096
0.1229363269
0.1170085585
0.1117835369
0.1072058428
0.1032224101
0.0997825031
0.0968377132
0.0943419483
0.0922514430
0.0905247617
0.0891227993
0.0880087805
0.0871482601
0.0865091231
0.0860615845
0.0857781895
0.0856338134
0.0856056615
0.0856732692
0.0858185020
0.0860255555
0.0862809555
0.0865735578
0.0868945482
0.0872374428
0.0875980876
0.0879746589
0.0883676399
0.0887797614
0.0892163724
0.0896736599
0.0901412118
0.0906103120
0.0910739921
0.0915270310
0.0919659549
0.0923890375
0.0927962998
0.0931895103
0.0935721847
0.0939495862
0.0943287255
0.0947183604
0.0951289964
0.0955728861
0.0960640297
0.0966181747
0.0972528160
0.0979871959
0.0988423040
0.0998291746
0.1009472948
0.1023178956
0.1040712755
0.1063306965
0.1092123698
0.1128254552
0.1172720589
0.1226472349
0.1290389863
0.1365282648
0.1451889712
0.1550879551
0.1662850150
0.1788328981
0.1927864475
0.2082849382
0.2249912933
0.2424311707
0.2601511055
0.2777185104
0.2947216758
0.3107697694
0.3254928364
0.3385417996
0.3495884595
0.3583254936
0.3644666401
0.3677473547
0.3679242127
0.3647746665
0.3580490234
0.3480341646
0.3353498381
0.3205725982
0.3042353621
0.2868274096
0.2687943838
0.2505382904
0.2324174979
0.2147467378
0.1977971045
0.1817960550
0.1669274096
0.1533313510
0.1411044251
0.1302995404
0.1209259686
0.1129581909
0.1070450586
0.1025524161
0.0981305057
0.0926446783
0.0851739873
0.0750123660
0.0616691910
0.0448692902
0.0245530314
0.0008762923
-0.0257896043
-0.0566342998
-0.0836995931
-0.0922859963
-0.0716617408
-0.0151345249
0.0799484861
0.2122006600
0.3761958977
0.5624686331
0.7575138334
0.9432685289
1.0894396611
1.1677042241
1.1635353064
1.0759489683
0.9175042413
0.7143031286
0.4990592420
0.2945529996
0.1180593733
-0.0192894708
-0.1125068057
-0.1627513440
-0.1761615645
-0.1597485484
-0.1251210278
-0.0822723487
-0.0388839998
-0.0003256119
0.0303450414
0.0523820441
0.0673198018
0.0774407393
0.0840816212
0.0883545641
0.0912085161
0.0934292571
0.0956393989
0.0982983851
0.1017024911
0.1059848241
0.1111153232
0.1169006190
0.1230708901
0.1298748233
0.1374317809
0.1457879669
0.1549771069
0.1650204364
0.1759268985
0.1876931538
0.2003035806
0.2137302747
0.2279330492
0.2428594350
0.2584446804
0.2746681902
0.2914784780
0.3086764488
0.3260662951
0.3434580294
0.3606674843
0.3775163127
0.3938319876
0.4094478021
0.4242028695
0.4379421232
0.4505164421
0.4617834733
0.4716071174
0.4798570972
0.4864089557
0.4911440562
0.4939495819
0.4947185363
0.4932140934
0.4893411611
0.4832988345
0.4752823188
0.4654816290
0.4540815899
0.4412618359
0.4271968113
0.4120557703
0.3960027766
0.3791967038
0.3617912355
0.3439348647
0.3257708943
0.3074374373
0.2890674159
0.2707885626
0.2527232898
0.2349877036
0.2176921498
0.2009417790
0.1848365558
0.1694715154
0.1549369285
0.1413179149
0.1286944040
0.1171373941
0.1066396223
0.0971337156
0.0885536876
0.0808358229
0.0739186773
0.0677430778
0.0622521226
0.0573911810
0.0531078936
0.0493521720
0.0460761990
0.0432344287
0.0407835863
0.0386826681
0.0368929417
0.0353780143
0.0341044419
0.0330414377
0.0321604903
0.0314353597
0.0308420771
0.0303589447
0.0299665359
0.0296476953
0.0293875388
0.0291734533
0.0289950969
0.0288443989
0.0287155599
0.0286050513
0.0285116161
0.0284362682
0.0283842056
0.0283814707
0.0284195945
0.0284811023
0.0285513597
0.0286185725
0.0286737870
0.0287108894
0.0287266215
0.0287207367
0.0286959373
0.0286577676
0.0286146119
0.0285774482
0.0285594635
0.0285765848
0.0286475795
0.0287940553
0.0290404600
0.0294140819
0.0299450493
0.0306663310
0.0316137358
0.0328259131
0.0343443522
0.0361589880
0.0383451320
0.0411301934
0.0447127929
0.0492608134
0.0549113993
0.0617709573
0.0699151558
0.0793888770
0.0902056300
0.1023477374
0.1157667743
0.1303835776
0.1460882463
0.1627401413
0.1802081711
0.1983701824
0.2165739390
0.2341624122
0.2505556578
0.2652508166
0.2778221142
0.2879208608
0.2952754513
0.2996913654
0.3010511678
0.2993145076
0.2945181188
0.2867758202
0.2762785152
0.2632938372
0.2481227480
0.2312884423
0.2133743582
0.1949040037
0.1763408378
0.1580878533
0.1404875645
0.1238221642
0.1083140201
0.0941251914
0.0813572592
0.0700513262
0.0601880170
0.0516874780
0.0444350202
0.0383094953
0.0328810977
0.0275536823
0.0215896726
0.0141100606
0.0040944066
-0.0096191604
-0.0283339430
-0.0532955487
-0.0822827594
-0.1102832486
-0.1316591073
-0.1401735342
-0.1289905441
-0.0906750071
-0.0173715011
0.0952885027
0.2453771230
0.4250621256
0.6205040334
0.8118561264
0.9732644417
1.0729792122
1.0891301285
1.0194459108
0.8723782048
0.6699961139
0.4479861991
0.2410480800
0.0620045870
-0.0777905286
-0.1730658118
-0.2246594577
-0.2377984084
-0.2208375152
-0.1859071299
-0.1429916570
-0.0997542005
-0.0615386557
-0.0313696385
-0.0099098163
0.0047230282
0.0144233137
0.0206679023
0.0247189558
0.0276241485
0.0302166680
0.0331152149
0.0367240033
0.0412327604
0.0466167266
0.0526366556
0.0589506519
0.0658494374
0.0734672012
0.0818537775
0.0910460245
0.1010678244
0.1119300837
0.1236307325
0.1361547253
0.1494740406
0.1635478180
0.1783258282
0.1937487411
0.2097608072
0.2263994192
0.2434880576
0.2608056126
0.2781401029
0.2952886751
0.3120576041
0.3282622929
0.3437272729
0.3582862033
0.3717818720
0.3840661945
0.3950002150
0.4044541056
0.4123071666
0.4184478266
0.4227736422
0.4251912984
0.4256166082
0.4239745128
0.4201244311
0.4140204349
0.4058794376
0.3959137496
0.3843252758
0.3713093373
0.3570549090
0.3417446507
0.3255552469
0.3086572806
0.2912149925
0.2733862777
0.2553226849
0.2371694167
0.2190653298
0.2011429345
0.1835283953
0.1663415303
0.1496958118
0.1336983658
0.1184499722
0.1040450649
0.0905717316
0.0781116545
0.0666999283
0.0562834559
0.0468024384
0.0381983776
0.0304167423
0.0234078592
0.0171235376
0.0115168205
0.0065419842
0.0021545384
-0.0016887737
-0.0050299755
-0.0079098570
-0.0103679749
-0.0124426523
-0.0141709790
-0.0155888113
-0.0167307722
-0.0176302511
-0.0183194043
-0.0188291543
-0.0191891905
-0.0194279686
-0.0195712712
-0.0196184288
-0.0195696436
-0.0194299043
-0.0192035564
-0.0188943491
-0.0185078574
-0.0180526516
-0.0175369508
-0.0169683309
-0.0163537353
-0.0156997156
-0.0150124352
-0.0142974256
-0.0135595752
-0.0128031289
-0.0120316885
-0.0112482125
-0.0104550162
-0.0096537716
-0.0088455075
-0.0080306095
-0.0072088197
-0.0063792373
-0.0055403181
-0.0046900934
-0.0038789431
-0.0031046847
-0.0023041451
-0.0014117415
-0.0003594504
0.0009253822
0.0025214626
0.0045102449
0.0069755924
0.0100037776
0.0136834825
0.0181057986
0.0233642264
0.0295546759
0.0367754667
0.0451273274
0.0547133962
0.0656392203
0.0780127568
0.0919500479
0.1074491228
0.1241321194
0.1415769290
0.1593675196
0.1770939352
0.1943522967
0.2107448013
0.2258797225
0.2393714104
0.2508402726
0.2599109248
0.2662106442
0.2693724201
0.2690346754
0.2651193798
0.2580206589
0.2481662301
0.2359784659
0.2218743775
0.2062656143
0.1895584646
0.1721538548
0.1544473503
0.1368291546
0.1196841101
0.1033916974
0.0883260358
0.0746858093
0.0622313124
0.0512360296
0.0418696462
0.0341345617
0.0278658896
0.0227314576
0.0182318191
0.0137019352
0.0083129374
0.0010690925
-0.0091926184
-0.0238025001
-0.0444924639
-0.0808259788
-0.1247554157
-0.1615817531
-0.1796375983
-0.1702871876
-0.1279263866
-0.0499826897
0.0630847797
0.2077852689
0.3775963965
0.5629641518
0.7513028951
0.9233240396
1.0411925895
1.0804058741
1.0323603839
0.9035219998
0.7154259934
0.5021705170
0.2922162120
0.1065541649
-0.0407434819
-0.1427506509
-0.1996873297
-0.2170024738
-0.2023925736
-0.1684121314
-0.1255410566
-0.0818397266
-0.0429489865
-0.0120901495
0.0099392379
0.0251208120
0.0355243653
0.0424551485
0.0470515948
0.0502853191
0.0529611184
0.0557169719
0.0590240407
0.0631866678
0.0683423785
0.0744618801
0.0813490644
0.0886487724
0.0964443616
0.1050036238
0.1143794687
0.1246088114
0.1357125718
0.1476956750
0.1605470513
0.1742396357
0.1887303686
0.2039601953
0.2198540662
0.2363209369
0.2532537678
0.2705546546
0.2881587449
0.3058372646
0.3233550395
0.3404894772
0.3570305660
0.3727808758
0.3875555574
0.4011823430
0.4135015460
0.4243660604
0.4336410207
0.4412031633
0.4469416313
0.4507581489
0.4525670218
0.4522950907
0.4497776436
0.4447802130
0.4375330551
0.4282867133
0.4172817535
0.4047487643
0.3909083564
0.3759711631
0.3601378402
0.3435990661
0.3265355412
0.3091179889
0.2915071546
0.2738538065
0.2562987351
0.2389727533
0.2219966966
0.2054814230
0.1895278125
0.1742262339
0.1596553545
0.1458835169
0.1329690861
0.1209604495
0.1098960171
0.0998042212
0.0907035167
0.0825950709
0.0754242249
0.0691174230
0.0636039230
0.0588158538
0.0546882147
0.0511588757
0.0481685776
0.0456609318
0.0435824203
0.0418823957
0.0405130815
0.0394295716
0.0385898307
0.0379546942
0.0374878681
0.0371559291
0.0369294291
0.0367858086
0.0367062920
0.0366749743
0.0366788212
0.0367077571
0.0367551511
0.0368174730
0.0368940640
0.0369881580
0.0371105746
0.0372570597
0.0374211600
0.0375979807
0.0377841867
0.0379780014
0.0381792078
0.0383891477
0.0386107220
0.0388483907
0.0391081730
0.0393976471
0.0397259503
0.0401037789
0.0405433885
0.0410574151
0.0416552206
0.0423464869
0.0431424550
0.0440559250
0.0451012562
0.0462943668
0.0476527342
0.0491778569
0.0508919355
0.0529320162
0.0554343135
0.0585273302
0.0623318565
0.0669609707
0.0725200388
0.0791067145
0.0868109396
0.0957149433
0.1058932430
0.1174126438
0.1303322384
0.1447034076
0.1606761258
0.1780113815
0.1961882644
0.2147131188
0.2331168152
0.2509536415
0.2678013028
0.2832608454
0.2969558766
0.3085328815
0.3176617540
0.3240358052
0.3273717635
0.3274097745
0.3238988992
0.3167066039
0.3063983343
0.2936204872
0.2789710668
0.2629996852
0.2462075618
0.2290475236
0.2119240052
0.1951930488
0.1791623040
0.1640910283
0.1501900863
0.1376213755
0.1264953974
0.1168732840
0.1087677745
0.1025038745
0.0990881096
0.0967353949
0.0936701140
0.0885191712
0.0803119906
0.0684805165
0.0528592133
0.0336850659
0.0115975788
-0.0123612228
-0.0367467940
-0.0594975409
-0.0714032866
-0.0593217880
-0.0140911943
0.0692439905
0.1914329081
0.3490183455
0.5343367352
0.7354610059
0.9255917269
1.0665602002
1.1327990980
1.1130141078
1.0101839307
0.8414356741
0.6343603796
0.4195866012
0.2216159568
0.0573216516
-0.0640515223
-0.1408742218
-0.1740200289
-0.1718342530
-0.1466125806
-0.1086288766
-0.0661351838
-0.0253617233
0.0094831059
0.0362127266
0.0546623835
0.0671254421
0.0758660558
0.0818990321
0.0861163517
0.0892879860
0.0920584788
0.0949493166
0.0983605730
0.1025709130
0.1077375939
0.1138964645
0.1209619655
0.1287271296
0.1369558557
0.1459115413
0.1556967986
0.1663443395
0.1778707273
0.1902763763
0.2035455522
0.2176463716
0.2325308027
0.2481346646
0.2643776278
0.2811632139
0.2983787957
0.3158955972
0.3336296431
0.3514835363
0.3691972061
0.3865277362
0.4032510366
0.4191596208
0.4340625942
0.4477856439
0.4601704884
0.4710746031
0.4803719869
0.4879532307
0.4937255170
0.4976126204
0.4995549073
0.4995093358
0.4974494560
0.4933654097
0.4871943115
0.4788474278
0.4685668429
0.4566051767
0.4432041320
0.4285944948
0.4129961341
0.3966180020
0.3796581335
0.3623031040
0.3447238680
0.3270780491
0.3095123341
0.2921624931
0.2751533791
0.2585989283
0.2426021597
0.2272551757
0.2126391614
0.1988243852
0.1858701985
0.1738250356
0.1627264140
0.1526009343
0.1434650551
0.1353336010
0.1281534050
0.1218513086
0.1163567896
0.1116019625
0.1075215787
0.1040530259
0.1011363287
0.0987141481
0.0967320388
0.0951407431
0.0938951000
0.0929526022
0.0922733792
0.0918201985
0.0915588299
0.0914585335
0.0914913274
0.0916318665
0.0918574423
0.0921479830
0.0924860533
0.0928568547
0.0932482252
0.0936506395
0.0940572090
0.0944636817
0.0948684421
0.0952725117
0.0956795688
0.0960940352
0.0965103539
0.0969211758
0.0973206906
0.0977046385
0.0980704353
0.0984171225
0.0987452818
0.0990570336
0.0993560370
0.0996474896
0.0999381279
0.1002362270
0.1005516007
0.1008956015
0.1012811206
0.1017225879
0.1022359719
0.1028387798
0.1035500576
0.1043896369
0.1053396828
0.1064771534
0.1079292363
0.1098185778
0.1122632836
0.1153769178
0.1192685036
0.1240425231
0.1297987904
0.1366308947
0.1446266901
0.1538694644
0.1644379639
0.1764063942
0.1898442351
0.2049075969
0.2215217568
0.2391889126
0.2574245229
0.2757657607
0.2937715137
0.3110223839
0.3271206879
0.3416904569
0.3543774367
0.3648490873
0.3727945837
0.3779248149
0.3799723849
0.3786916120
0.3738289144
0.3653507518
0.3538868507
0.3400836090
0.3245373623
0.3077940508
0.2903480151
0.2726419622
0.2550669662
0.2379624676
0.2216162736
0.2062645582
0.1920918620
0.1792310924
0.1677635232
0.1577187953
0.1490749159
0.1417582590
0.1360296286
0.1337794595
0.1324068924
0.1291226862
0.1219555270
0.1097520284
0.0921767309
0.0697121026
0.0436585384
0.0161343608
-0.0099242046
-0.0307634439
-0.0421647932
-0.0359653623
0.0009752427
0.0767702134
0.1938110608
0.3487679617
0.5325895039
0.7305025279
0.9217519119
1.0753766123
1.1615022400
1.1640707082
1.0813476345
0.9259223403
0.7247050045
0.5098980085
0.3040078872
0.1248577944
-0.0159106672
-0.1128374446
-0.1666440359
-0.1831309044
-0.1688702596
-0.1353715360
-0.0927044534
-0.0486875373
-0.0088877516
0.0233795171
0.0470504595
0.0633215692
0.0746015174
0.0822689955
0.0874070947
0.0909505513
0.0936857473
0.0962507096
0.0991351111
0.1026802695
0.1070791482
0.1123763559
0.1184681466
0.1251024200
0.1321396253
0.1398846126
0.1483978306
0.1577187476
0.1678739464
0.1788771242
0.1907291167
0.2034185074
0.2169216785
0.2312021603
0.2462105976
0.2618847498
0.2781494650
0.2949716717
0.3123023447
0.3299307904
0.3476502793
0.3652623595
0.3825768568
0.3994118749
0.4155937950
0.4309572762
0.4453452553
0.4586089468
0.4706078429
0.4812097135
0.4902906063
0.4977348468
0.5034350381
0.5072920610
0.5092150741
0.5091214965
0.5068109386
0.5020721608
0.4951299195
0.4862167090
0.4755560463
0.4633624706
0.4498415436
0.4351898491
0.4195949934
0.4032356051
0.3862813351
0.3688928568
0.3512218657
0.3334110798
0.3155942394
0.2978961072
0.2804324681
0.2633101296
0.2466269211
0.2304716949
0.2149243251
0.2000557085
0.1859277642
0.1725934334
0.1600966789
0.1484724424
0.1377466300
0.1279361664
0.1190490015
0.1110747374
0.1039568930
0.0976301127
0.0920318927
0.0871023303
0.0827841137
0.0790225226
0.0757654275
0.0729632902
0.0705691637
0.0685386919
0.0668301102
0.0654042448
0.0642245132
0.0632569241
0.0624700773
0.0618351635
0.0613259649
0.0609188547
0.0605927972
0.0603293700
0.0601139172
0.0599361147
0.0597883695
0.0596656802
0.0595656363
0.0594884185
0.0594384642
0.0594180829
0.0594206411
0.0594404283
0.0594729913
0.0595151345
0.0595649197
0.0596216662
0.0596859504
0.0597596066
0.0598457263
0.0599486583
0.0600740092
0.0602286427
0.0604206801
0.0606595002
0.0609557389
0.0613212900
0.0617692732
0.0623118399
0.0629587320
0.0637206063
0.0646093770
0.0656382158
0.0668087173
0.0681511930
0.0697688069
0.0717651119
0.0742416292
0.0772978491
0.0810312304
0.0855372006
0.0909091561
0.0972384618
0.1046144514
0.1131244273
0.1228536606
0.1338853912
0.1463008275
0.1602364760
0.1756123661
0.1920717329
0.2092533447
0.2267942797
0.2443325202
0.2615091460
0.2779640363
0.2933353538
0.3072595445
0.3193713377
0.3293037461
0.3366880659
0.3411538764
0.3423290404
0.3398747359
0.3339948290
0.3251328250
0.3137205485
0.3001781062
0.2849138868
0.2683245610
0.2507950815
0.2326986830
0.2143968824
0.1962394784
0.1785645518
0.1616984655
0.1459558644
0.1316396598
0.1193069894
0.1097677804
0.1022065457
0.0957581420
0.0896591063
0.0832476571
0.0759638649
0.0673498636
0.0570495194
0.0448083786
0.0304736682
0.0139942953
-0.0045791523
-0.0250944066
-0.0472975189
-0.0708328604
-0.0938773409
-0.1060008448
-0.0962711105
-0.0567918120
0.0173648103
0.1281579497
0.2745782334
0.4526477220
0.6568952194
0.8583708161
1.0208344514
1.1191452546
1.1392962408
1.0784143112
0.9447602528
0.7577481431
0.5458868241
0.3342637666
0.1418670250
-0.0176810203
-0.1361236624
-0.2105698682
-0.2434942782
-0.2427372063
-0.2189489136
-0.1802507388
-0.1356831754
-0.0922339550
-0.0547377615
-0.0258762308
-0.0061779508
0.0059815382
0.0140931013
0.0197593879
0.0236970522
0.0266827105
0.0293391984
0.0321359601
0.0353890481
0.0392611234
0.0437613980
0.0487561866
0.0542899628
0.0604781896
0.0673747783
0.0750242011
0.0834614912
0.0927122424
0.1027926098
0.1137093089
0.1254596163
0.1380313695
0.1514029668
0.1655433674
0.1804168398
0.1961261643
0.2125818231
0.2295857821
0.2469461428
0.2644774579
0.2820013237
0.2993456354
0.3163444240
0.3328378564
0.3486722354
0.3636999995
0.3777797233
0.3907761172
0.4025600275
0.4130084363
0.4220044618
0.4294373577
0.4352025139
0.4392014561
0.4413418458
0.4415374805
0.4397082936
0.4357364790
0.4295248116
0.4212677357
0.4111729791
0.3994413731
0.3862668522
0.3718364544
0.3563305046
0.3399230270
0.3227812700
0.3050655853
0.2869294277
0.2685193555
0.2499750459
0.2314293718
0.2130083431
0.1948310728
0.1770097776
0.1596497770
0.1428494942
0.1267004556
0.1112872908
0.0966877327
0.0829726176
0.0702058851
0.0584444702
0.0477077919
0.0379459823
0.0291025839
0.0211227955
0.0139534720
0.0075431245
0.0018416166
-0.0032006418
-0.0076318385
-0.0114985047
-0.0148455159
-0.0177160911
-0.0201517931
-0.0221925288
-0.0238765486
-0.0252404470
-0.0263191622
-0.0271459762
-0.0277525148
-0.0281687478
-0.0284229885
-0.0285418944
-0.0285504667
-0.0284720501
-0.0283283337
-0.0281345829
-0.0278863291
-0.0275910572
-0.0272573963
-0.0268932535
-0.0265058134
-0.0261014827
-0.0256857183
-0.0252631958
-0.0248378686
-0.0244129674
-0.0239910006
-0.0235737695
-0.0231625035
-0.0227577967
-0.0223595218
-0.0219668290
-0.0215781462
-0.0211911788
-0.0208029098
-0.0204095998
-0.0200067869
-0.0195892869
-0.0191511931
-0.0186858764
-0.0181859853
-0.0176434459
-0.0170501498
-0.0164563442
-0.0158248113
-0.0150539326
-0.0140443569
-0.0126982999
-0.0109201770
-0.0086168630
-0.0056976916
-0.0020744558
0.0023385924
0.0076247418
0.0138648221
0.0211372038
0.0295177984
0.0390800582
0.0498949764
0.0620310869
0.0755544648
0.0907047711
0.1074848982
0.1252859307
0.1435328335
0.1616964612
0.1792935579
0.1958867570
0.2110845815
0.2245414437
0.2359576455
0.2450791562
0.2516966679
0.2556463810
0.2568103850
0.2551166590
0.2505390716
0.2430973965
0.2328575927
0.2199472717
0.2047887808
0.1879935397
0.1701235502
0.1516842885
0.1331247051
0.1148372248
0.0971577470
0.0803656451
0.0646837672
0.0502784357
0.0372594471
0.0256800727
0.0155370577
0.0067706221
-0.0007355400
-0.0071542601
-0.0123493070
-0.0164161968
-0.0210186611
-0.0275528585
-0.0370654274
-0.0502534860
-0.0674646324
-0.0886969444
-0.1135989797
-0.1415539016
-0.1717581191
-0.1941524740
-0.1980361119
-0.1753622810
-0.1207383317
-0.0314257167
0.0926600086
0.2489491866
0.4322180574
0.6334589616
0.8255816938
0.9752831970
1.0591645897
1.0641071074
0.9872721016
0.8369503935
0.6395268719
0.4252670016
0.2183972327
0.0370008574
-0.1069819897
-0.2067235070
-0.2638324221
-0.2851838500
-0.2779935050
-0.2497959787
-0.2084447400
-0.1621121353
-0.1192893880
-0.0859992818
-0.0612786306
-0.0436331635
-0.0315987778
-0.0237401599
-0.0186507850
-0.0149529173
-0.0114674739
-0.0079124293
-0.0041628348
-0.0000984402
0.0043854459
0.0093802816
0.0149628500
0.0211940324
0.0281188010
0.0357662191
0.0441510656
0.0533036092
0.0632672119
0.0740715359
0.0857315523
0.0982475408
0.1116050899
0.1257750971
0.1407137684
0.1563626189
0.1726484721
0.1894834607
0.2067650260
0.2243759181
0.2421841958
0.2600432268
0.2777916877
0.2952535637
0.3122381488
0.3285395813
0.3439868118
0.3584719906
0.3717832421
0.3837284820
0.3941408062
0.4028784923
0.4098252000
0.4148901990
0.4180079942
0.4191382707
0.4182658941
0.4154009100
0.4105785445
0.4038592039
0.3953284747
0.3850971239
0.3733010986
0.3601015262
0.3456164674
0.3299700539
0.3133872961
0.2960806057
0.2782490143
0.2600781741
0.2417407153
0.2233994621
0.2052059138
0.1872982145
0.1698011286
0.1528260406
0.1364709554
0.1208204981
0.1059459140
0.0919050687
0.0787424481
0.0664914248
0.0552389422
0.0449768672
0.0356468065
0.0271922303
0.0195584721
0.0126927285
0.0065440597
0.0010633889
-0.0037964973
-0.0080809488
-0.0118334524
-0.0150956316
-0.0179072465
-0.0203062568
-0.0223294813
-0.0240123382
-0.0253883901
-0.0264893362
-0.0273450123
-0.0279833910
-0.0284306257
-0.0287111566
-0.0288475924
-0.0288606789
-0.0287692981
-0.0285904691
-0.0283393474
-0.0280292255
-0.0276715322
-0.0272595828
-0.0267572363
-0.0261791775
-0.0255417592
-0.0248593100
-0.0241441341
-0.0234065113
-0.0226546972
-0.0218949231
-0.0211315348
-0.0203687082
-0.0196099161
-0.0188566352
-0.0181083179
-0.0173623923
-0.0166142622
-0.0158573071
-0.0150828821
-0.0142803182
-0.0134369217
-0.0125379750
-0.0115667359
-0.0105044381
-0.0093302907
-0.0080214787
-0.0065531627
-0.0048984792
-0.0030285400
-0.0009124328
0.0014728387
0.0041131074
0.0071966475
0.0109306395
0.0154927963
0.0210314988
0.0276677700
0.0354948360
0.0445765011
0.0549471024
0.0666115093
0.0795451241
0.0936938608
0.1089740513
0.1252725199
0.1424466237
0.1604263312
0.1789138339
0.1972269156
0.2147495909
0.2309399846
0.2453303319
0.2575269783
0.2672103797
0.2741351024
0.2781298227
0.2790973277
0.2770145146
0.2719323909
0.2639760745
0.2533447390
0.2403051373
0.2251779273
0.2085210353
0.1908950383
0.1728023538
0.1546872393
0.1369357928
0.1198759525
0.1037774968
0.0888520445
0.0752530546
0.0630758264
0.0523574995
0.0430770538
0.0351553094
0.0285827036
0.0231367524
0.0182999167
0.0134590377
0.0079053391
0.0008344277
-0.0086537072
-0.0215546938
-0.0389597772
-0.0620752702
-0.0907270662
-0.1194122077
-0.1416506464
-0.1509967356
-0.1410392292
-0.1054012826
-0.0377404128
0.0682239264
0.2143619316
0.3920009633
0.5870347335
0.7806666721
0.9494099268
1.0650873629
1.0987871665
1.0465893438
0.9204412011
0.7385444860
0.5253284305
0.3114308918
0.1232078786
-0.0287401404
-0.1381806178
-0.2038600707
-0.2295041226
-0.2223887163
-0.1920472268
-0.1498828693
-0.1048689965
-0.0634535181
-0.0295589007
-0.0045821683
0.0125931677
0.0243439134
0.0322269576
0.0375226734
0.0413062513
0.0444476992
0.0476118422
0.0512583228
0.0556416009
0.0608109537
0.0666104757
0.0727797859
0.0795451284
0.0870159385
0.0952441827
0.1042707508
0.1141254552
0.1248270655
0.1363843891
0.1487964989
0.1620514704
0.1761263021
0.1909869155
0.2065881682
0.2229746478
0.2400861172
0.2577232343
0.2756920051
0.2938037972
0.3118753399
0.3297287243
0.3471914028
0.3640961897
0.3802812610
0.3955901542
0.4098717685
0.4229803648
0.4347755655
0.4451223550
0.4538910790
0.4609574449
0.4662025219
0.4695127283
0.4707793267
0.4698091891
0.4663269887
0.4605436423
0.4527004490
0.4430293389
0.4317528733
0.4190842446
0.4052272763
0.3903764229
0.3747167702
0.3584240348
0.3416645647
0.3245953388
0.3073639672
0.2901086910
0.2729583825
0.2560325452
0.2394413134
0.2232854526
0.2076563597
0.1926360622
0.1782972192
0.1647031204
0.1519076884
0.1399555464
0.1288820529
0.1187132060
0.1094656346
0.1011465991
0.0937483871
0.0872183957
0.0814893309
0.0764970205
0.0721800740
0.0684798547
0.0653404787
0.0627088161
0.0605344898
0.0587698766
0.0573701063
0.0562930624
0.0554993816
0.0549524541
0.0546184233
0.0544661863
0.0544673933
0.0545964481
0.0548305078
0.0551494876
0.0555364064
0.0559776156
0.0564622744
0.0569822953
0.0575323445
0.0581098412
0.0587181305
0.0593561954
0.0600150194
0.0606868363
0.0613651759
0.0620448638
0.0627220215
0.0633940665
0.0640597120
0.0647189670
0.0653731368
0.0660248221
0.0666779197
0.0673376223
0.0680104185
0.0687040927
0.0694277251
0.0701916919
0.0710076603
0.0718880915
0.0728458171
0.0738948647
0.0750505578
0.0763295157
0.0777372096
0.0792774379
0.0810681257
0.0832337250
0.0858933546
0.0891608216
0.0931446208
0.0979479353
0.1036686359
0.1103992816
0.1182271192
0.1272340838
0.1374967981
0.1490865730
0.1620694075
0.1765165837
0.1925926887
0.2099568341
0.2281254207
0.2466356053
0.2650452293
0.2829327424
0.2998973327
0.3155589449
0.3295582798
0.3415567951
0.3512367046
0.3583009788
0.3624733446
0.3634982854
0.3611410411
0.3551495397
0.3458151503
0.3337831208
0.3196526198
0.3039756290
0.2872569424
0.2699541667
0.2524777210
0.2351908373
0.2184095601
0.2024027465
0.1873920660
0.1735520011
0.1610098493
0.1498464181
0.1400969325
0.1317496556
0.1247908195
0.1200813615
0.1165936449
0.1127176040
0.1071618014
0.0989533839
0.0874381336
0.0722804812
0.0534635059
0.0312889353
0.0063771457
-0.0204252588
-0.0501220616
-0.0698173180
-0.0646735449
-0.0246617584
0.0554385256
0.1760392915
0.3327440244
0.5163477095
0.7128368325
0.9033893779
1.0628458742
1.1597795913
1.1770314450
1.1105520989
0.9688268845
0.7728758012
0.5560824937
0.3492476858
0.1685342570
0.0253314957
-0.0744291990
-0.1302743166
-0.1471882358
-0.1339862057
-0.1000134291
-0.0562486681
-0.0112651884
0.0289260712
0.0608764989
0.0836998098
0.0990582296
0.1094550879
0.1163198180
0.1209323549
0.1243387950
0.1273519766
0.1305525845
0.1342877674
0.1386708350
0.1435812576
0.1488609927
0.1547319660
0.1612627729
0.1685050684
0.1765024900
0.1852905800
0.1948967855
0.2053404579
0.2166328534
0.2287771327
0.2417684366
0.2556744520
0.2704754484
0.2860429458
0.3022458427
0.3189504166
0.3360203237
0.3533165989
0.3706976558
0.3880192869
0.4051343282
0.4218919016
0.4381382857
0.4537171377
0.4684694936
0.4822337681
0.4948457549
0.5061386261
0.5159429327
0.5240866046
0.5303949504
0.5346902684
0.5368262828
0.5368270939
0.5347649360
0.5307204734
0.5247828006
0.5170494419
0.5076263519
0.4966279149
0.4841769457
0.4704046888
0.4554508188
0.4394634405
0.4225990885
0.4050228381
0.3869086002
0.3684388086
0.3498043276
0.3312044510
0.3128469032
0.2949478383
0.2777262910
0.2612661344
0.2455938340
0.2307487249
0.2167628588
0.2036610041
0.1914606460
0.1801719862
0.1697979430
0.1603341515
0.1517689633
0.1440834467
0.1372513868
0.1312392851
0.1260063600
0.1215045462
0.1176784955
0.1144655761
0.1117959679
0.1095929620
0.1077726681
0.1062657988
0.1050776407
0.1041774966
0.1035320024
0.1031100496
0.1028827847
0.1028236095
0.1029081814
0.1031144127
0.1034224711
0.1038147798
0.1042760171
0.1047931166
0.1053552671
0.1059539130
0.1065827537
0.1072377439
0.1079170937
0.1086212686
0.1093534648
0.1101185609
0.1109092902
0.1117170844
0.1125328157
0.1133483651
0.1141572680
0.1149547145
0.1157375493
0.1165042718
0.1172550431
0.1179917943
0.1187182047
0.1194396110
0.1201630048
0.1208970321
0.1216519938
0.1224398452
0.1232741964
0.1241703123
0.1251451121
0.1261865748
0.1273135744
0.1286565051
0.1303419762
0.1324899467
0.1352137250
0.1386199693
0.1428096230
0.1478819145
0.1539310439
0.1610445614
0.1693033672
0.1787817108
0.1895471916
0.2016607583
0.2151785288
0.2302963147
0.2467276254
0.2639351674
0.2814134930
0.2986889993
0.3153199293
0.3308963710
0.3450402577
0.3574053683
0.3676773268
0.3755736027
0.3808435107
0.3832682109
0.3826607089
0.3788658554
0.3717571305
0.3614473442
0.3485246562
0.3335869665
0.3171853603
0.2998241118
0.2819606841
0.2640057289
0.2463230889
0.2292298643
0.2129964293
0.1978463528
0.1839563922
0.1714564941
0.1604297938
0.1509126155
0.1428489390
0.1360795306
0.1303765097
0.1253519363
0.1204565800
0.1149799203
0.1080501461
0.0986341561
0.0855375586
0.0674046717
0.0429440306
0.0143011510
-0.0132670213
-0.0338363251
-0.0408800505
-0.0272689391
0.0147288163
0.0925337923
0.2093469039
0.3642611954
0.5491106974
0.7482182338
0.9383954223
1.0889692488
1.1704167018
1.1685020182
1.0824803075
0.9261386186
0.7260925690
0.5103077521
0.3038821732
0.1249579389
-0.0156050097
-0.1127929710
-0.1687665012
-0.1886556489
-0.1789928124
-0.1477110003
-0.1041423359
-0.0588143278
-0.0185302552
0.0147983265
0.0403504669
0.0582623423
0.0696271853
0.0764954133
0.0814850893
0.0854811949
0.0889483734
0.0923022728
0.0958606130
0.0998431854
0.1043718532
0.1094705512
0.1150873709
0.1212874159
0.1281411125
0.1356978074
0.1439970442
0.1530685631
0.1629325819
0.1736019786
0.1850811034
0.1973645140
0.2104369648
0.2242734068
0.2388389874
0.2541421497
0.2701749756
0.2867718836
0.3037658062
0.3209920990
0.3382885410
0.3554953344
0.3724551046
0.3890129004
0.4050161938
0.4203148802
0.4347612782
0.4482101296
0.4605185995
0.4715462764
0.4811551720
0.4892097213
0.4955767825
0.5001255108
0.5027262157
0.5031961093
0.5013585436
0.4973556138
0.4913477434
0.4834932979
0.4739485845
0.4628678679
0.4504034026
0.4367053937
0.4219219887
0.4061992766
0.3896812883
0.3725099968
0.3548253165
0.3367651041
0.3184651578
0.3000592180
0.2816789666
0.2634540276
0.2455119668
0.2279782917
0.2109764519
0.1946278386
0.1790518438
0.1643664807
0.1506881417
0.1380842438
0.1264998954
0.1158842485
0.1061877881
0.0973619820
0.0893592807
0.0821331174
0.0756379080
0.0698290512
0.0646629283
0.0600969032
0.0560893229
0.0525995166
0.0495877965
0.0470154576
0.0448447773
0.0430390160
0.0415624165
0.0403802047
0.0394585889
0.0387647602
0.0382668924
0.0379340799
0.0377355648
0.0376409746
0.0376209066
0.0376493220
0.0377322313
0.0378679817
0.0380487386
0.0382672041
0.0385165758
0.0387905822
0.0390834985
0.0393901467
0.0397058954
0.0400266601
0.0403489032
0.0406696336
0.0409864072
0.0412973265
0.0416010409
0.0418967465
0.0421841861
0.0424636495
0.0427359730
0.0430025399
0.0432653347
0.0435277482
0.0437944012
0.0440704800
0.0443612304
0.0446715943
0.0450207050
0.0454370233
0.0459566488
0.0466233200
0.0474884148
0.0486109497
0.0500575804
0.0519026015
0.0542279469
0.0571231890
0.0606855397
0.0650198497
0.0702386086
0.0764619452
0.0838176272
0.0924410614
0.1025080858
0.1143294312
0.1277296846
0.1424305941
0.1581471508
0.1745876871
0.1914545959
0.2084443563
0.2252475332
0.2415487779
0.2570268274
0.2713545289
0.2841990157
0.2952216078
0.3040777120
0.3104168213
0.3138825147
0.3141124573
0.3107482305
0.3038181053
0.2938461454
0.2813606221
0.2668587125
0.2508065004
0.2336389755
0.2157600338
0.1975424778
0.1793280157
0.1614273150
0.1441211143
0.1276602012
0.1122643177
0.0981221118
0.0853911378
0.0741978039
0.0643761064
0.0558324635
0.0485996990
0.0425029313
0.0371595728
0.0319793302
0.0261642050
0.0187084924
0.0083987824
-0.0061869199
-0.0263206448
-0.0514637799
-0.0794315312
-0.1066058044
-0.1279352053
-0.1369350392
-0.1256873112
-0.0869528225
-0.0148231999
0.0968848058
0.2476114281
0.4298633750
0.6292139379
0.8243029914
0.9873041874
1.0910157404
1.1166393316
1.0585482623
0.9248671441
0.7374239970
0.5245396310
0.3117684847
0.1197099657
-0.0379313974
-0.1543459545
-0.2270011709
-0.2583614184
-0.2587796826
-0.2376315870
-0.2030915557
-0.1621328132
-0.1205273840
-0.0828460933
-0.0524584801
-0.0312998269
-0.0174116643
-0.0085086444
-0.0029372583
0.0006588803
0.0033390349
0.0058653463
0.0087028325
0.0120193887
0.0156868523
0.0196879881
0.0242228180
0.0293536134
0.0351360545
0.0416192311
0.0488456416
0.0568511937
0.0656652042
0.0753103990
0.0858029128
0.0971522897
0.1093614828
0.1224297399
0.1363907815
0.1511861633
0.1667159701
0.1828708636
0.1995358097
0.2165903601
0.2339086525
0.2513594104
0.2688059431
0.2861061465
0.3031125196
0.3196721687
0.3356267869
0.3508126533
0.3650606329
0.3781961764
0.3900393205
0.4004046878
0.4091014867
0.4159745250
0.4209706637
0.4240500336
0.4251894454
0.4243825503
0.4216398395
0.4169886447
0.4104731836
0.4021570235
0.3921243189
0.3804763711
0.3673313215
0.3528241518
0.3371066840
0.3203475803
0.3027323431
0.2844633153
0.2657596798
0.2468574599
0.2279774491
0.2092014964
0.1906654593
0.1725040455
0.1548383252
0.1377757312
0.1214100588
0.1058214661
0.0910764736
0.0772279645
0.0643151844
0.0523637417
0.0413856073
0.0313790867
0.0223268121
0.0141943935
0.0069334836
0.0004820977
-0.0052322093
-0.0102278098
-0.0145453996
-0.0182443180
-0.0213811364
-0.0240096248
-0.0261808172
-0.0279430195
-0.0293418097
-0.0304200379
-0.0312178262
-0.0317725687
-0.0321189315
-0.0322888530
-0.0323115432
-0.0322134845
-0.0320184311
-0.0317474094
-0.0314187177
-0.0310479264
-0.0306478677
-0.0302275969
-0.0297841675
-0.0293110476
-0.0288213555
-0.0283274059
-0.0278401056
-0.0273689530
-0.0269220385
-0.0265060444
-0.0261262448
-0.0257865055
-0.0254892845
-0.0252356312
-0.0250251871
-0.0248561857
-0.0247254520
-0.0246284030
-0.0245590477
-0.0245099867
-0.0244724126
-0.0244361098
-0.0243894546
-0.0243194150
-0.0242115510
-0.0240500114
-0.0238170652
-0.0234925979
-0.0230549658
-0.0224811171
-0.0217465919
-0.0208272571
-0.0197602188
-0.0184270409
-0.0166437990
-0.0142451658
-0.0110844532
-0.0070336217
-0.0019832802
0.0041573140
0.0114602550
0.0199789883
0.0297483111
0.0407843719
0.0530846708
0.0666280595
0.0813747411
0.0972662701
0.1143422259
0.1323826744
0.1507464161
0.1688437957
0.1861416182
0.2021656930
0.2165012516
0.2287929480
0.2387448583
0.2461204807
0.2507427359
0.2524939666
0.2513159378
0.2472098370
0.2402362735
0.2305152791
0.2182172899
0.2036791838
0.1874823187
0.1701751670
0.1522521831
0.1341538031
0.1162664454
0.0989225101
0.0824003792
0.0669244168
0.0526649689
0.0397383659
0.0282080918
0.0180866519
0.0093330195
0.0018521500
-0.0040390865
-0.0083295794
-0.0123528493
-0.0172688555
-0.0240315898
-0.0333892258
-0.0458839867
-0.0618520886
-0.0814237412
-0.1045231471
-0.1308685021
-0.1620513511
-0.1918822086
-0.2058262242
-0.1929401922
-0.1460303969
-0.0616526130
0.0598878949
0.2145363720
0.3944885732
0.5881907625
0.7803387929
0.9487585514
1.0615364295
1.0973322145
1.0487415437
0.9222657661
0.7383011507
0.5263491689
0.3141543135
0.1235483134
-0.0309773180
-0.1422712829
-0.2098590785
-0.2353375147
-0.2291506531
-0.2020987913
-0.1633387017
-0.1203836310
-0.0791033010
-0.0437239079
-0.0168281225
0.0013665882
0.0134081286
0.0211823102
0.0262469357
0.0298590634
0.0329763043
0.0362553367
0.0400515245
0.0444189171
0.0491233845
0.0542167770
0.0598876271
0.0661968087
0.0731973457
0.0809343169
0.0894447672
0.0987577082
0.1088941173
0.1198669380
0.1316810802
0.1443334198
0.1578127987
0.1721749999
0.1874365507
0.2034448556
0.2200460168
0.2370865408
0.2544133379
0.2718737229
0.2893153246
0.3065858439
0.3235333088
0.3400061517
0.3558532092
0.3709237221
0.3850673353
0.3981340980
0.4099744633
0.4204392888
0.4293798361
0.4366477711
0.4420951639
0.4455744885
0.4469341248
0.4460726277
0.4430830750
0.4380875685
0.4312117483
0.4225847924
0.4123394172
0.4006118774
0.3875419657
0.3732730131
0.3579518889
0.3417287892
0.3247565694
0.3071913943
0.2891929667
0.2709245279
0.2525528571
0.2342482720
0.2161846283
0.1985393120
0.1814931330
0.1652303542
0.1498725668
0.1354123651
0.1218591413
0.1092176636
0.0974878073
0.0866645543
0.0767379938
0.0676933216
0.0595108407
0.0521659609
0.0456291989
0.0398661785
0.0348376301
0.0304993914
0.0268026548
0.0236948848
0.0211189941
0.0190130028
0.0173100376
0.0159383325
0.0148251989
0.0139582652
0.0133216855
0.0128887087
0.0126343270
0.0125352755
0.0125700327
0.0127188198
0.0129636014
0.0132880853
0.0136777220
0.0141197056
0.0146029729
0.0151182042
0.0156578224
0.0162159940
0.0167886285
0.0173733782
0.0179696388
0.0185784493
0.0192020616
0.0198483500
0.0205742440
0.0213676041
0.0221954518
0.0230305285
0.0238512960
0.0246419389
0.0253924573
0.0260986795
0.0267621602
0.0273901741
0.0279957158
0.0285975000
0.0292199616
0.0298932555
0.0306532565
0.0315415596
0.0326054798
0.0338980522
0.0354780320
0.0374098942
0.0397638342
0.0426157673
0.0460472705
0.0501452919
0.0550023701
0.0607167635
0.0673924505
0.0751391297
0.0840722196
0.0943128588
0.1059879061
0.1192542814
0.1340983380
0.1502175061
0.1672900505
0.1849849476
0.2029618848
0.2208712610
0.2383541861
0.2550424814
0.2705586793
0.2845160236
0.2965184692
0.3061606823
0.3130280405
0.3166966323
0.3167685866
0.3133308199
0.3067713508
0.2974798655
0.2858445739
0.2722522091
0.2570880270
0.2407358066
0.2235778500
0.2059949807
0.1883664180
0.1710696790
0.1544807808
0.1389742636
0.1249150774
0.1121163088
0.1006291334
0.0907202716
0.0824865475
0.0758548888
0.0705823267
0.0662559963
0.0622931362
0.0579410887
0.0522772997
0.0442093187
0.0324747472
0.0156247597
-0.0130027900
-0.0498763728
-0.0844220383
-0.1076960268
-0.1123847688
-0.0928048853
-0.0449031875
0.0337433227
0.1439274535
0.2848118222
0.4539288561
0.6471636385
0.8477588176
1.0157019546
1.1196327924
1.1417289637
1.0777059914
0.9368172883
0.7421915602
0.5272644330
0.3210664039
0.1443402268
0.0095328640
-0.0792045825
-0.1228172038
-0.1270599332
-0.1051976815
-0.0685087733
-0.0260689314
0.0152487237
0.0507736733
0.0780380010
0.0967765305
0.1093318296
0.1182342824
0.1244451553
0.1288043794
0.1320441790
0.1347890717
0.1375558685
0.1407536732
0.1446838834
0.1495401895
0.1554085753
0.1622673179
0.1699869874
0.1783304475
0.1872135695
0.1969227330
0.2074994765
0.2189633527
0.2313155950
0.2445391035
0.2585984446
0.2734398511
0.2889912223
0.3051621240
0.3218437884
0.3389091139
0.3562126657
0.3736311602
0.3910965782
0.4083374563
0.4250836559
0.4410869872
0.4561212092
0.4699820299
0.4824871061
0.4934760436
0.5028103968
0.5103736692
0.5160713132
0.5198307300
0.5216010424
0.5213506767
0.5190682984
0.5147644936
0.5084717968
0.5002157670
0.4899555058
0.4779229263
0.4643804545
0.4495774380
0.4337497310
0.4171200744
0.3998982471
0.3822810667
0.3644523884
0.3465831062
0.3288311518
0.3113414954
0.2942461454
0.2776641482
0.2617015887
0.2464515897
0.2319943125
0.2183969563
0.2057137589
0.1939861743
0.1832451083
0.1735247994
0.1648185779
0.1570587257
0.1501789989
0.1441156362
0.1388073585
0.1341953695
0.1302233551
0.1268374836
0.1239864062
0.1216212559
0.1196956488
0.1181656831
0.1169899394
0.1161294811
0.1155478537
0.1152110854
0.1150876867
0.1151486507
0.1153674529
0.1157200511
0.1161848859
0.1167428801
0.1173772567
0.1180708368
0.1188132979
0.1196003316
0.1204208633
0.1212645484
0.1221218144
0.1229838607
0.1238426589
0.1246910327
0.1255231849
0.1263343683
0.1271206088
0.1278787046
0.1286062260
0.1293015150
0.1299636860
0.1305926252
0.1311889911
0.1317542139
0.1322904962
0.1328008124
0.1332889090
0.1337593046
0.1342155514
0.1346456107
0.1350947389
0.1356333325
0.1363377171
0.1372900114
0.1385781271
0.1402957692
0.1425424355
0.1454234171
0.1490497982
0.1535384559
0.1590120605
0.1655990754
0.1734337572
0.1826561554
0.1934126060
0.2060252537
0.2203971730
0.2361187851
0.2527865632
0.2700030315
0.2873767659
0.3045223938
0.3210605939
0.3366180965
0.3508274289
0.3633214740
0.3737335569
0.3817028167
0.3868744440
0.3888996810
0.3874358211
0.3821521263
0.3733148004
0.3616261287
0.3477400433
0.3322558814
0.3157187388
0.2986194783
0.2813947287
0.2644268859
0.2480441119
0.2325203357
0.2180752525
0.2048743242
0.1930287793
0.1825956129
0.1735775865
0.1659232282
0.1595924129
0.1559639044
0.1534787542
0.1497322242
0.1429606081
0.1320409106
0.1164908469
0.0964688428
0.0727740349
0.0468462703
0.0207661069
-0.0028916434
-0.0187536344
-0.0126720478
0.0265705583
0.1051773989
0.2243374626
0.3802255109
0.5640020788
0.7618151026
0.9512203939
1.0941162726
1.1615872409
1.1406632185
1.0343195429
0.8614769695
0.6531047569
0.4392307166
0.2444362928
0.0854792966
-0.0287199149
-0.0970784394
-0.1234033512
-0.1149402901
-0.0846855786
-0.0434644469
0.0002536368
0.0403549916
0.0730814563
0.0970303750
0.1132621321
0.1246335917
0.1325393565
0.1380047815
0.1419211868
0.1450458569
0.1480020413
0.1512789543
0.1552317749
0.1600816468
0.1659156786
0.1726869984
0.1802170190
0.1882089624
0.1967923185
0.2061781734
0.2164075422
0.2275048961
0.2394781625
0.2523187249
0.2660014228
0.2804845520
0.2957098644
0.3116025677
0.3280713261
0.3450083402
0.3624011107
0.3801208977
0.3979035485
0.4155001048
0.4326768032
0.4492150751
0.4649115467
0.4795780386
0.4930415666
0.5051443409
0.5157437516
0.5247115503
0.5319334342
0.5373101922
0.5407578081
0.5422074605
0.5416055225
0.5389135621
0.5341035342
0.5269975140
0.5177118173
0.5065142332
0.4936606883
0.4793952551
0.4639501517
0.4475457423
0.4303905368
0.4126811908
0.3946025059
0.3763274294
0.3580170544
0.3398206200
0.3218755108
0.3043072576
0.2872295367
0.2707441771
0.2549416555
0.2399014322
0.2256911930
0.2123667697
0.1999721397
0.1885394262
0.1780888984
0.1686333840
0.1601669968
0.1526230425
0.1459317701
0.1400263034
0.1348426414
0.1303196578
0.1263991012
0.1230255953
0.1201466385
0.1177126043
0.1156767410
0.1139951719
0.1126268951
0.1115337837
0.1106805857
0.1100349240
0.1095672923
0.1092506143
0.1090598611
0.1089727880
0.1089700258
0.1090350796
0.1091543299
0.1093170319
0.1095153157
0.1097441863
0.1100015029
0.1102878874
0.1106016938
0.1109343291
0.1112776403
0.1116247914
0.1119702632
0.1123098534
0.1126406766
0.1129611643
0.1132710650
0.1135714440
0.1138646834
0.1141544825
0.1144458571
0.1147451431
0.1150604322
0.1154020462
0.1157817375
0.1162125754
0.1167089462
0.1172865530
0.1179378613
0.1186953554
0.1196671038
0.1209612755
0.1226854158
0.1249464463
0.1278506649
0.1315037456
0.1360107388
0.1414760711
0.1480035453
0.1556963407
0.1646570124
0.1749874922
0.1867890880
0.2002147434
0.2153831765
0.2318677491
0.2492028504
0.2669369056
0.2846311789
0.3018615763
0.3182189429
0.3333090633
0.3467526619
0.3581854020
0.3672578868
0.3736356586
0.3769992083
0.3770440041
0.3734734591
0.3660867434
0.3554213899
0.3421444035
0.3268718674
0.3101689430
0.2925498697
0.2744779652
0.2563656253
0.2385743239
0.2214146132
0.2051461234
0.1899775631
0.1760667221
0.1635220815
0.1524054044
0.1427282078
0.1344513340
0.1282617341
0.1235741475
0.1187327448
0.1123933095
0.1035232389
0.0914015435
0.0756188471
0.0560773870
0.0329910138
0.0068851916
-0.0219558515
-0.0522371479
-0.0682500233
-0.0561233282
-0.0069371337
0.0832772686
0.2135373662
0.3779094263
0.5655084953
0.7604983991
0.9415334642
1.0749334379
1.1325157064
1.1032031098
0.9925685502
0.8200858380
0.6125718495
0.3981895024
0.1992733732
0.0322600893
-0.0931423389
-0.1762774816
-0.2197784126
-0.2284593599
-0.2093157064
-0.1715239894
-0.1263469858
-0.0827364086
-0.0443332663
-0.0132649863
0.0096295838
0.0248001762
0.0339851032
0.0401139886
0.0448688845
0.0487287174
0.0522110346
0.0557228269
0.0595596876
0.0639055947
0.0688329108
0.0743024338
0.0802992789
0.0869265096
0.0942422407
0.1022943672
0.1111205647
0.1207482891
0.1311947768
0.1424670445
0.1545618893
0.1674658888
0.1811554011
0.1955965643
0.2107452974
0.2266254030
0.2432182644
0.2603309907
0.2777741049
0.2953633726
0.3129198028
0.3302702096
0.3472487358
0.3636952508
0.3794548673
0.3943779409
0.4083200705
0.4211420981
0.4327101088
0.4428954307
0.4515745912
0.4586288061
0.4639441560
0.4674119572
0.4689287691
0.4683963945
0.4656103199
0.4605587607
0.4534440728
0.4444631457
0.4338073788
0.4216626821
0.4082094753
0.3936226887
0.3780717625
0.3617206472
0.3447272229
0.3272414502
0.3094071647
0.2913627120
0.2732409479
0.2551692384
0.2372694598
0.2196579985
0.2024457509
0.1857381239
0.1696350343
0.1542309092
0.1396146860
0.1258698121
0.1130742450
0.1012993174
0.0905500625
0.0807642793
0.0718821119
0.0638453066
0.0565972119
0.0500827783
0.0442485588
0.0390427081
0.0344149836
0.0303173987
0.0267066581
0.0235419788
0.0207841803
0.0183956843
0.0163405144
0.0145842967
0.0130942593
0.0118392323
0.0107896721
0.0099182319
0.0091997920
0.0086108639
0.0081295618
0.0077356016
0.0074103017
0.0071395711
0.0069325556
0.0067881381
0.0067022360
0.0066714722
0.0066931754
0.0067653800
0.0068868262
0.0070569600
0.0072749456
0.0075353909
0.0078318631
0.0081586343
0.0085106821
0.0088836901
0.0092740475
0.0096788492
0.0100958959
0.0105236942
0.0109614561
0.0114090996
0.0118672484
0.0123372319
0.0128210853
0.0133215495
0.0138420711
0.0143868026
0.0148901682
0.0153015907
0.0157445049
0.0163388955
0.0171981822
0.0184292205
0.0201323010
0.0224021801
0.0253332591
0.0290156901
0.0335330643
0.0389624083
0.0453741841
0.0528322890
0.0613940558
0.0711102525
0.0820250786
0.0941758881
0.1075930174
0.1223001968
0.1382422373
0.1550265171
0.1721794373
0.1892469880
0.2057947311
0.2214078003
0.2356909012
0.2482683109
0.2587838786
0.2669010250
0.2723027427
0.2746915962
0.2737969064
0.2696222967
0.2624528739
0.2526019759
0.2404010894
0.2261998506
0.2103660445
0.1932856054
0.1753626166
0.1570193107
0.1386960694
0.1208514233
0.1039337388
0.0880241711
0.0733479300
0.0601419691
0.0485424270
0.0385846272
0.0302030784
0.0232314740
0.0174026928
0.0123487982
0.0076010388
0.0025898484
-0.0033551546
-0.0109306170
-0.0212977705
-0.0367083841
-0.0579712096
-0.0841669185
-0.1126481025
-0.1390392735
-0.1572368631
-0.1611909399
-0.1426197199
-0.0912520152
-0.0016183496
0.1268495391
0.2898186716
0.4780548274
0.6775064361
0.8662090044
1.0100347907
1.0838851397
1.0756424482
0.9861701640
0.8293127870
0.6291708352
0.4131283960
0.2056950731
0.0247658977
-0.1183892836
-0.2191268028
-0.2776411752
-0.2964638583
-0.2865714644
-0.2580621495
-0.2194266532
-0.1775482991
-0.1377029943
-0.1035592297
-0.0771780800
-0.0589647625
-0.0467952883
-0.0387662948
-0.0336144900
-0.0302612763
-0.0278127501
-0.0255597024
-0.0229776185
-0.0197266780
-0.0156517548
-0.0107824172
-0.0053329277
0.0004861671
0.0069621962
0.0141762239
0.0221762055
0.0309993332
0.0406720570
0.0512100844
0.0626183805
0.0748911682
0.0880119278
0.1019533973
0.1166775031
0.1321351441
0.1482664031
0.1650639688
0.1825507128
0.2005166192
0.2187486940
0.2370429905
0.2552046089
0.2730476965
0.2903954476
0.3070801037
0.3229429531
0.3378343313
0.3516136208
0.3641493104
0.3753196286
0.3850123006
0.3931241063
0.3995608726
0.4042374736
0.4070778302
0.4080149105
0.4069907298
0.4039563500
0.3987774924
0.3914546538
0.3822099115
0.3712580178
0.3588054558
0.3450504395
0.3301829142
0.3143845560
0.2978287722
0.2806807008
0.2630972112
0.2452269036
0.2272101092
0.2091788903
0.1912570402
0.1735601888
0.1561971363
0.1392694524
0.1228704610
0.1070852168
0.0919905058
0.0776548449
0.0641384818
0.0514933956
0.0397632962
0.0289838148
0.0191846138
0.0103287852
0.0023554386
-0.0047941205
-0.0111763907
-0.0168456745
-0.0218540788
-0.0262515145
-0.0300856965
-0.0334021440
-0.0362441802
-0.0386529323
-0.0406673319
-0.0423241144
-0.0436579099
-0.0447025926
-0.0454909962
-0.0460537909
-0.0464194512
-0.0466142555
-0.0466622865
-0.0465854309
-0.0464033796
-0.0461336274
-0.0457914734
-0.0453900208
-0.0449401769
-0.0444506529
-0.0439279644
-0.0433764311
-0.0427981765
-0.0421931284
-0.0415590189
-0.0408898067
-0.0401120676
-0.0392205662
-0.0382559176
-0.0372536693
-0.0362443007
-0.0352532359
-0.0343010671
-0.0334035288
-0.0325712950
-0.0318099719
-0.0311200978
-0.0304971430
-0.0299315102
-0.0294085341
-0.0289084816
-0.0284065769
-0.0278732732
-0.0272741495
-0.0265697206
-0.0257154333
-0.0246616665
-0.0233537312
-0.0217318708
-0.0197312606
-0.0172820082
-0.0143091532
-0.0107326674
-0.0064674549
-0.0014233517
0.0044948739
0.0113875866
0.0193616904
0.0285306122
0.0390517654
0.0512104387
0.0648544078
0.0797461717
0.0956366577
0.1122652212
0.1293596457
0.1466361429
0.1637993525
0.1805423424
0.1965466087
0.2114820757
0.2250070954
0.2367684486
0.2464013436
0.2535294172
0.2577647342
0.2587077877
0.2560411306
0.2500192255
0.2411031857
0.2297371912
0.2163480737
0.2013444551
0.1851166607
0.1680376492
0.1504630635
0.1327312302
0.1151631601
0.0980625478
0.0817157718
0.0663918946
0.0523426672
0.0398026271
0.0291019869
0.0202274873
0.0127718849
0.0063130420
0.0004153643
-0.0053701992
-0.0115061561
-0.0184684705
-0.0267465634
-0.0368433123
-0.0492750513
-0.0645715713
-0.0832761197
-0.1059454175
-0.1330670397
-0.1606629451
-0.1789343752
-0.1792210485
-0.1545915293
-0.0998432279
-0.0115024007
0.1121758501
0.2712075762
0.4621279576
0.6641854030
0.8506197518
0.9974867540
1.0836923816
1.0910206163
1.0126052493
0.8619744475
0.6619501386
0.4441675374
0.2397885365
0.0654490684
-0.0677861521
-0.1561012264
-0.2000619575
-0.2079331508
-0.1896866617
-0.1545631185
-0.1110741001
-0.0670023023
-0.0293931392
-0.0019547388
0.0171231328
0.0299128555
0.0382238306
0.0436024803
0.0473321844
0.0504332459
0.0536187389
0.0571085241
0.0609946720
0.0653645272
0.0702975246
0.0758651896
0.0821311380
0.0891510761
0.0969728007
0.1056361990
0.1151732485
0.1256114872
0.1369864271
0.1492962191
0.1625170611
0.1766106384
0.1915243983
0.2071915498
0.2235310639
0.2404476736
0.2578318735
0.2755599204
0.2934938326
0.3114813907
0.3293561368
0.3469373753
0.3640301721
0.3804253551
0.3958995143
0.4102150013
0.4231508226
0.4345996905
0.4444024719
0.4524160968
0.4585240500
0.4626363701
0.4646896507
0.4646470652
0.4625002708
0.4582707161
0.4520067135
0.4437831298
0.4337013859
0.4218894575
0.4085018745
0.3937197210
0.3777506360
0.3608288126
0.3432151039
0.3251037539
0.3066169926
0.2879676836
0.2693517375
0.2509471718
0.2329141110
0.2153947865
0.1985135369
0.1823768075
0.1670731509
0.1526732265
0.1392298007
0.1267777470
0.1153340321
0.1048962888
0.0954415611
0.0869287047
0.0793120974
0.0725941881
0.0667153764
0.0616076898
0.0572060580
0.0534483126
0.0502751875
0.0476303185
0.0454602435
0.0437144025
0.0423451375
0.0413076928
0.0405602144
0.0400637506
0.0397822517
0.0396825700
0.0397344602
0.0399105786
0.0401864838
0.0405406365
0.0409543994
0.0414120584
0.0419059108
0.0424319844
0.0429844795
0.0435584924
0.0441500153
0.0447559365
0.0453740404
0.0460030072
0.0466424133
0.0472927308
0.0479552186
0.0486316010
0.0493243931
0.0500370061
0.0507737470
0.0515398190
0.0523413211
0.0531852486
0.0540794924
0.0550328399
0.0560549741
0.0571564741
0.0583488153
0.0596443687
0.0610563931
0.0625911265
0.0641700262
0.0658658933
0.0678053346
0.0701087860
0.0728905127
0.0762586095
0.0803150004
0.0851554386
0.0908695068
0.0975406171
0.1052460109
0.1140567587
0.1240377606
0.1352477461
0.1477392738
0.1615587318
0.1767463375
0.1933847928
0.2114140969
0.2302356415
0.2492535323
0.2679170810
0.2857208053
0.3022044339
0.3169552563
0.3296119344
0.3398593331
0.3474275236
0.3520917830
0.3536725947
0.3520356478
0.3470918380
0.3387916898
0.3273355677
0.3133653273
0.2975150212
0.2803648081
0.2624408324
0.2442152234
0.2261060956
0.2084775485
0.1916396665
0.1758485194
0.1613061618
0.1481606334
0.1365059590
0.1263821485
0.1177717735
0.1105527670
0.1045242475
0.0993225239
0.0944016425
0.0890342047
0.0823113665
0.0731428387
0.0602568868
0.0422003310
0.0177295032
-0.0105617744
-0.0374245096
-0.0568313602
-0.0619919016
-0.0453526276
0.0014030506
0.0854294072
0.2095090314
0.3713625751
0.5609830440
0.7606105642
0.9447323819
1.0801049597
1.1360608166
1.1069789641
0.9992809503
0.8283017161
0.6182907356
0.4024107196
0.2139977017
0.0645366855
-0.0401496208
-0.0992041439
-0.1167884290
-0.1020826401
-0.0671916920
-0.0230844468
0.0209927769
0.0588102772
0.0871564025
0.1058375493
0.1176136409
0.1252817060
0.1301910128
0.1335926893
0.1364480088
0.1394283895
0.1429153948
0.1470007328
0.1515343187
0.1566286569
0.1623939956
0.1688917485
0.1761754044
0.1842903646
0.1932739429
0.2031553660
0.2139557727
0.2256882148
0.2384596815
0.2523371850
0.2671753633
0.2828253862
0.2991367883
0.3159574688
0.3331336918
0.3505100861
0.3679296455
0.3852337283
0.4022620578
0.4188527218
0.4348421734
0.4500652298
0.4643550736
0.4775432519
0.4894596765
0.4999320758
0.5087842371
0.5158377063
0.5209123941
0.5238265761
0.5243764790
0.5225131054
0.5184095550
0.5122440712
0.5041938726
0.4944351223
0.4831423079
0.4704882657
0.4566447821
0.4417826184
0.4260715112
0.4096801722
0.3927762881
0.3755265208
0.3580965075
0.3406508601
0.3233531661
0.3063659879
0.2898508629
0.2739683039
0.2588782314
0.2447415946
0.2316906066
0.2196907018
0.2087060396
0.1987056724
0.1896563909
0.1815227244
0.1742669406
0.1678490456
0.1622267837
0.1573556379
0.1531888295
0.1496773181
0.1467698018
0.1444127172
0.1425502392
0.1411242810
0.1400744945
0.1393382697
0.1388507353
0.1385487631
0.1384176830
0.1384402037
0.1385930246
0.1388545094
0.1392042022
0.1396232243
0.1400944727
0.1406026203
0.1411341156
0.1416771830
0.1422218227
0.1427598108
0.1432846991
0.1437918249
0.1442788221
0.1447458693
0.1451949832
0.1456329365
0.1460694147
0.1464925543
0.1468916680
0.1472595703
0.1475925774
0.1478905075
0.1481566807
0.1483979187
0.1486245454
0.1488503863
0.1490929647
0.1493744936
0.1497211323
0.1501625428
0.1507318890
0.1514658369
0.1524024516
0.1534847228
0.1548424367
0.1566971682
0.1592460430
0.1626617373
0.1670924781
0.1726620430
0.1794697604
0.1875905092
0.1970747192
0.2079483709
0.2202129953
0.2338456742
0.2487990400
0.2650012760
0.2825134923
0.3009238135
0.3194356189
0.3373372308
0.3539987645
0.3688745155
0.3815046819
0.3915153700
0.3986185949
0.4026122800
0.4033802574
0.4008922675
0.3952039593
0.3864568899
0.3748784243
0.3607571491
0.3446189688
0.3271686226
0.3090368506
0.2907759505
0.2728597777
0.2556837451
0.2395648235
0.2247415414
0.2113739848
0.1995437976
0.1892541811
0.1804298947
0.1729180492
0.1664935129
0.1608556262
0.1567534058
0.1538766086
0.1481850029
0.1370029066
0.1191688572
0.0950356109
0.0664701434
0.0368536494
0.0110815428
-0.0044365435
-0.0034634952
0.0241057655
0.0908163385
0.2018121989
0.3546478467
0.5392883070
0.7381091296
0.9258671632
1.0687053796
1.1378887670
1.1199834415
1.0162563985
0.8426748378
0.6299008235
0.4158713701
0.2203813921
0.0579741922
-0.0624549826
-0.1378535405
-0.1710115452
-0.1698572380
-0.1430408438
-0.1021187587
-0.0568156583
-0.0142328565
0.0211519441
0.0474847281
0.0655351673
0.0778311211
0.0860390436
0.0915271070
0.0954337748
0.0986668833
0.1019036425
0.1055906354
0.1099438181
0.1149485202
0.1203649124
0.1262045807
0.1326644562
0.1398047243
0.1476760324
0.1563194902
0.1657666694
0.1760396039
0.1871507897
0.1991031850
0.2118902100
0.2254957470
0.2399764896
0.2553779538
0.2715262839
0.2882456978
0.3053633127
0.3227091453
0.3401161117
0.3574200271
0.3744596064
0.3910764637
0.4071151124
0.4224229653
0.4368503346
0.4502502531
0.4624765446
0.4733845580
0.4828325178
0.4906815480
0.4967956720
0.5010418124
0.5032897915
0.5034122088
0.5011946606
0.4966607681
0.4900144977
0.4814549559
0.4711761898
0.4593670659
0.4462112697
0.4318873057
0.4165684975
0.4004229877
0.3836137380
0.3662985290
0.3486299606
0.3307554514
0.3128172394
0.2949523813
0.2772927202
0.2599644685
0.2430883315
0.2267798261
0.2111492885
0.1963018737
0.1823375559
0.1693511283
0.1574297196
0.1465766011
0.1367280959
0.1278244711
0.1198074731
0.1126203271
0.1062077376
0.1005158882
0.0954924415
0.0910865393
0.0872488025
0.0839313311
0.0810877041
0.0786729798
0.0766436955
0.0749578676
0.0735749916
0.0724561561
0.0715657577
0.0708711453
0.0703411889
0.0699462377
0.0696581200
0.0694501431
0.0692970934
0.0691796779
0.0691036724
0.0690659026
0.0690614033
0.0690856800
0.0691347570
0.0692052463
0.0692943488
0.0693998543
0.0695201417
0.0696541784
0.0698015209
0.0699623146
0.0701372937
0.0703277812
0.0705356891
0.0707635184
0.0710142495
0.0712893814
0.0715891488
0.0719143099
0.0722662119
0.0726467908
0.0730585738
0.0735079170
0.0740050284
0.0745661238
0.0752167458
0.0759917632
0.0769353716
0.0781010929
0.0795517757
0.0813595950
0.0836060525
0.0863819761
0.0897875205
0.0939321669
0.0989347229
0.1049233227
0.1120354270
0.1204178229
0.1302937528
0.1419037444
0.1550432446
0.1694630587
0.1849004649
0.2010791204
0.2177090621
0.2344867060
0.2510948475
0.2672026617
0.2824657027
0.2965259041
0.3090115853
0.3195375704
0.3277051786
0.3331021130
0.3353024555
0.3338673760
0.3286259169
0.3200619818
0.3087279444
0.2951463245
0.2798097875
0.2631811447
0.2456933532
0.2277495159
0.2097227910
0.1919539791
0.1747512658
0.1583928399
0.1431270364
0.1291723356
0.1167173641
0.1059031613
0.0964714832
0.0884306535
0.0817783531
0.0762834581
0.0714860397
0.0666973643
0.0609998931
0.0532472831
0.0420643858
0.0259573466
0.0042734200
-0.0220037125
-0.0500705989
-0.0752968663
-0.0912252207
-0.0895714473
-0.0630728350
-0.0033680189
0.0967865157
0.2377460549
0.4129650518
0.6089969382
0.8055143607
0.9745381015
1.0847812482
1.1164108652
1.0633018826
0.9330370966
0.7469071654
0.5359904679
0.3213176904
0.1218440804
-0.0482889195
-0.1803810516
-0.2711732427
-0.3227372619
-0.3380974172
-0.3255954129
-0.2950181004
-0.2546085385
-0.2110659938
-0.1695459403
-0.1336600966
-0.1054779812
-0.0853232393
-0.0713600542
-0.0619316155
-0.0556553553
-0.0513604706
-0.0480879234
-0.0450904409
-0.0418325153
-0.0379904041
-0.0334521295
-0.0283174792
-0.0228769997
-0.0170223577
-0.0105732890
-0.0034782544
0.0043064561
0.0128167233
0.0220805988
0.0321183051
0.0429422356
0.0545569544
0.0669591965
0.0801378677
0.0940740393
0.1087406482
0.1241023406
0.1402684329
0.1572418152
0.1748224105
0.1928174423
0.2110414375
0.2293162270
0.2474709450
0.2653420294
0.2827732222
0.2996156443
0.3157278862
0.3309758644
0.3452327988
0.3583792132
0.3703029347
0.3808990945
0.3900701269
0.3977257702
0.4037830661
0.4081663601
0.4108073013
0.4116448424
0.4106252677
0.4077043051
0.4028485916
0.3960072559
0.3871886226
0.3765866153
0.3643979501
0.3508126474
0.3360140322
0.3201787338
0.3034766861
0.2860711273
0.2681186001
0.2497689518
0.2311653338
0.2124442023
0.1937353178
0.1751617451
0.1568398539
0.1388793177
0.1213831151
0.1044475287
0.0881621457
0.0726098577
0.0578668609
0.0440026311
0.0310772892
0.0191403642
0.0082321236
-0.0016859984
-0.0106701360
-0.0187750100
-0.0260539285
-0.0325587863
-0.0383400654
-0.0434468347
-0.0479267500
-0.0518260420
-0.0551894847
-0.0580604294
-0.0604808147
-0.0624911657
-0.0641305948
-0.0654368013
-0.0664460716
-0.0671932788
-0.0677118833
-0.0680339322
-0.0681900599
-0.0682094873
-0.0681200126
-0.0679463621
-0.0677083689
-0.0674240147
-0.0671098682
-0.0667810852
-0.0664514084
-0.0661226740
-0.0657708263
-0.0654032946
-0.0650292816
-0.0646568981
-0.0642931626
-0.0639440016
-0.0636142495
-0.0633076489
-0.0630268499
-0.0627734110
-0.0625477982
-0.0623493858
-0.0621764559
-0.0620261985
-0.0618947116
-0.0617770011
-0.0616669808
-0.0615574741
-0.0614406271
-0.0613084680
-0.0611520723
-0.0609614235
-0.0607254131
-0.0604318405
-0.0600674130
-0.0596177459
-0.0590673624
-0.0583996937
-0.0575970788
-0.0566408057
-0.0555696704
-0.0543195903
-0.0527338549
-0.0506690167
-0.0479948907
-0.0445945547
-0.0403643494
-0.0352138779
-0.0290660064
-0.0218568637
-0.0135358412
-0.0040655935
0.0065779638
0.0184062409
0.0314189357
0.0456027349
0.0609310626
0.0774452955
0.0951064291
0.1133522347
0.1316354317
0.1494575127
0.1663687438
0.1819681642
0.1959035866
0.2078715969
0.2176175546
0.2249355923
0.2296686159
0.2317083048
0.2309951116
0.2275182623
0.2213157563
0.2124743661
0.2011252549
0.1874919083
0.1720948659
0.1554661542
0.1380876912
0.1203871147
0.1027429280
0.0854856594
0.0688978622
0.0532141145
0.0386210192
0.0252572043
0.0132133225
0.0025320516
-0.0067919059
-0.0148118032
-0.0216286784
-0.0273914358
-0.0319814850
-0.0345580135
-0.0370174438
-0.0412070824
-0.0484807855
-0.0596989596
-0.0752285611
-0.0949430965
-0.1182226222
-0.1439537446
-0.1705296198
-0.1959904251
-0.2184196891
-0.2266205701
-0.2097531072
-0.1605675880
-0.0754045488
0.0458052255
0.1995407013
0.3786905966
0.5725533806
0.7668053913
0.9388964394
1.0596828338
1.1095591720
1.0802456888
0.9747882570
0.8075583869
0.6033902313
0.3870181480
0.1794362636
-0.0032862800
-0.1505098307
-0.2570242260
-0.3230487935
-0.3518756799
-0.3488491122
-0.3241789613
-0.2866870428
-0.2436444408
-0.2007715083
-0.1622378666
-0.1306624061
-0.1071113026
-0.0905152268
-0.0789730615
-0.0710991984
-0.0656970392
-0.0617592119
-0.0584675433
-0.0551928648
-0.0514950057
-0.0471227932
-0.0420140523
-0.0362956058
-0.0302726908
-0.0238755411
-0.0169020299
-0.0093057387
-0.0010488172
0.0078980165
0.0175569177
0.0279475663
0.0390826838
0.0509664231
0.0635943687
0.0769535369
0.0910223756
0.1057707643
0.1211600141
0.1371848901
0.1539490481
0.1712881445
0.1890094888
0.2069282110
0.2248672622
0.2426574141
0.2601372592
0.2771532110
0.2935595036
0.3092181919
0.3239991518
0.3377800798
0.3504464933
0.3618917304
0.3720169503
0.3807304456
0.3879450546
0.3935804612
0.3975641700
0.3998315061
0.4003256159
0.3989974662
0.3958058447
0.3907070775
0.3836149210
0.3746739146
0.3640766849
0.3520093113
0.3386513800
0.3241757921
0.3087487499
0.2925297559
0.2756716135
0.2583204267
0.2406156001
0.2226898392
0.2046691498
0.1866728387
0.1688135131
0.1511970811
0.1339231646
0.1170869123
0.1007775191
0.0850774810
0.0700625950
0.0558019584
0.0423579696
0.0297863272
0.0181364269
0.0074554647
-0.0022845252
-0.0111368105
-0.0191530107
-0.0263830972
-0.0328753929
-0.0386765729
-0.0438316637
-0.0483840437
-0.0523754432
-0.0558459442
-0.0588339804
-0.0613763375
-0.0635081527
-0.0652629151
-0.0666724658
-0.0677671733
-0.0685768299
-0.0691299831
-0.0694535327
-0.0695727306
-0.0695111802
-0.0692908369
-0.0689320077
-0.0684533515
-0.0678718790
-0.0672029525
-0.0664602865
-0.0656559861
-0.0648005893
-0.0639029966
-0.0629637136
-0.0619351959
-0.0608246789
-0.0596522346
-0.0584358466
-0.0571914110
-0.0559327359
-0.0546715415
-0.0534174600
-0.0521780360
-0.0509589325
-0.0497651501
-0.0486002031
-0.0474655200
-0.0463604416
-0.0452822206
-0.0442260219
-0.0431849226
-0.0421499118
-0.0411098908
-0.0400516729
-0.0389599837
-0.0378174607
-0.0366046537
-0.0353000246
-0.0338799472
-0.0323187077
-0.0305885043
-0.0286594473
-0.0264995591
-0.0240747743
-0.0213489395
-0.0182904696
-0.0149338033
-0.0111032831
-0.0065835668
-0.0011918174
0.0052212168
0.0127702408
0.0215354078
0.0315623183
0.0428620209
0.0554110120
0.0691512357
0.0839900838
0.0998003962
0.1164204603
0.1336539838
0.1512700292
0.1690030972
0.1865628383
0.2034932844
0.2193019521
0.2335539466
0.2458719617
0.2559362802
0.2634847731
0.2683129005
0.2702737108
0.2692778413
0.2652937361
0.2583383483
0.2486290722
0.2365308414
0.2224113333
0.2066396794
0.1895864657
0.1716237323
0.1531249737
0.1344651387
0.1160206305
0.0981693066
0.0812128644
0.0652628029
0.0505512843
0.0372503713
0.0254585360
0.0152006608
0.0064280379
-0.0009816303
-0.0072242318
-0.0125692444
-0.0173597360
-0.0220123645
-0.0270173781
-0.0328477341
-0.0402133771
-0.0514208188
-0.0678585408
-0.0896270461
-0.1155388584
-0.1431185225
-0.1686026041
-0.1871091656
-0.1939403787
-0.1796954642
-0.1363768265
-0.0592059207
0.0533769396
0.1997124281
0.3749221252
0.5708914222
0.7715996814
0.9502442706
1.0828633292
1.1502440715
1.1390734822
1.0455402469
0.8787793114
0.6702591386
0.4551517114
0.2548254948
0.0869025905
-0.0387568955
-0.1201829555
-0.1609170591
-0.1666081170
-0.1449753816
-0.1058084468
-0.0607927651
-0.0185467789
0.0174927923
0.0454753625
0.0649953260
0.0770920567
0.0842499090
0.0892975441
0.0930242679
0.0961098228
0.0990911091
0.1023575435
0.1061510594
0.1105661064
0.1155548957
0.1211495185
0.1274534242
0.1345237798
0.1424052566
0.1511332510
0.1607339592
0.1712243776
0.1826123023
0.1948963293
0.2080658547
0.2221010743
0.2370983466
0.2530820930
0.2698590955
0.2872393983
0.3050370493
0.3230701583
0.3411608975
0.3591355014
0.3768242670
0.3940615535
0.4106857829
0.4265394391
0.4414690689
0.4553252812
0.4679627473
0.4792404381
0.4890252164
0.4971911062
0.5036162829
0.5081829846
0.5107775114
0.5112902260
0.5096121565
0.5055765330
0.4992983291
0.4909977106
0.4808884028
0.4691776900
0.4560664158
0.4417489828
0.4264133531
0.4102410477
0.3934071469
0.3760802901
0.3584226760
0.3405900624
0.3227317662
0.3049906637
0.2875031902
0.2703993403
0.2538024848
0.2378260591
0.2225739166
0.2081433581
0.1946252438
0.1821039929
0.1706574436
0.1603136303
0.1510157242
0.1427020339
0.1353122921
0.1287876559
0.1230706912
0.1181051175
0.1138358510
0.1102092248
0.1071729965
0.1046763479
0.1026698851
0.1011056387
0.0999370635
0.0991190384
0.0986078670
0.0983612771
0.0983384206
0.0984999948
0.0988108893
0.0992401801
0.0997584871
0.1003378545
0.1009517554
0.1015907550
0.1022572922
0.1029455135
0.1036501413
0.1043664747
0.1050903887
0.1058183345
0.1065473396
0.1072750077
0.1079995185
0.1087196282
0.1094346690
0.1101445494
0.1108497540
0.1115513438
0.1122509557
0.1129508030
0.1136536752
0.1143629380
0.1150824690
0.1158149341
0.1165615943
0.1173362245
0.1181539087
0.1190045401
0.1198880050
0.1208149968
0.1218070157
0.1228963690
0.1241261707
0.1255503419
0.1272336221
0.1292519917
0.1316928004
0.1346542422
0.1382453180
0.1425858358
0.1478064105
0.1540484638
0.1614604376
0.1701473522
0.1801878857
0.1916148978
0.2044063096
0.2184851557
0.2337212998
0.2499318416
0.2668790766
0.2842703622
0.3017581178
0.3189398245
0.3353580255
0.3505003260
0.3637993931
0.3746347612
0.3825207960
0.3873147668
0.3889679012
0.3874941533
0.3829702038
0.3755354595
0.3653920541
0.3528048475
0.3381014259
0.3216721023
0.3039699158
0.2855106323
0.2668727438
0.2486974690
0.2314820921
0.2153020636
0.2004131904
0.1870023489
0.1751759578
0.1649599778
0.1562999118
0.1490608046
0.1430272434
0.1379033573
0.1333128176
0.1287988376
0.1240341129
0.1172249495
0.1061873862
0.0898579554
0.0682977005
0.0426921764
0.0153509558
-0.0100771877
-0.0250691227
-0.0205228704
0.0110137042
0.0753428921
0.1766171404
0.3174087219
0.4984373840
0.6986694410
0.8913579939
1.0519210468
1.1579415065
1.1891671828
1.1282912554
0.9840210815
0.7909012098
0.5796303188
0.3753498006
0.1976437620
0.0605355832
-0.0297193058
-0.0767706012
-0.0870458382
-0.0685553934
-0.0308924840
0.0147668314
0.0577945391
0.0941356551
0.1221955376
0.1417355811
0.1538739890
0.1610857851
0.1661086022
0.1698185250
0.1729276651
0.1759768763
0.1793345890
0.1831968103
0.1875871240
0.1924759955
0.1979786353
0.2041560986
0.2110611208
0.2187389375
0.2272275050
0.2365579891
0.2467541975
0.2578324381
0.2699220209
0.2831960816
0.2974944691
0.3126486609
0.3284922619
0.3448610041
0.3615927466
0.3785274758
0.3955072999
0.4123758763
0.4289778984
0.4451600658
0.4607712052
0.4756622707
0.4896863432
0.5026986312
0.5145564701
0.5251193226
0.5342487786
0.5418085549
0.5476644960
0.5516845732
0.5537388849
0.5536996571
0.5514412426
0.5467429693
0.5396084971
0.5303185741
0.5191428409
0.5063388155
0.4921518938
0.4768153487
0.4605503308
0.4435658665
0.4260585628
0.4082122793
0.3901986738
0.3721772815
0.3542955151
0.3366886648
0.3194798985
0.3027802612
0.2866886757
0.2712919421
0.2566647381
0.2428696189
0.2299568801
0.2179639762
0.2069160039
0.1968259373
0.1876946281
0.1795108052
0.1722619993
0.1659051652
0.1603675193
0.1555792612
0.1514736964
0.1479872359
0.1450593968
0.1426329335
0.1406540155
0.1390719625
0.1378392001
0.1369112595
0.1362467775
0.1358074968
0.1355582654
0.1354670374
0.1355048722
0.1356459353
0.1358674974
0.1361499353
0.1364767313
0.1368344733
0.1372128549
0.1376046756
0.1380058403
0.1384151028
0.1388269473
0.1392322295
0.1396232015
0.1399931903
0.1403365975
0.1406489013
0.1409274313
0.1411726468
0.1413864174
0.1415716872
0.1417324755
0.1418738763
0.1420020582
0.1421242647
0.1422488143
0.1423850998
0.1425435893
0.1427358255
0.1429744826
0.1432738120
0.1436271696
0.1440386732
0.1446078144
0.1454379770
0.1466327644
0.1482959992
0.1505317237
0.1534441993
0.1571379072
0.1617175478
0.1672880401
0.1739534078
0.1818145827
0.1909721040
0.2015267305
0.2135794404
0.2273004237
0.2428816114
0.2598257833
0.2775879700
0.2956535226
0.3135381131
0.3307877340
0.3469786984
0.3617176404
0.3746415143
0.3854175954
0.3937434795
0.3993470831
0.4019866433
0.4014507180
0.3975581855
0.3901667250
0.3795023793
0.3662071611
0.3509013634
0.3341574138
0.3165014523
0.2984115492
0.2803172356
0.2625995031
0.2455908042
0.2295750518
0.2147876198
0.2014153423
0.1895965145
0.1799711011
0.1729187741
0.1672596528
0.1619337804
0.1560375874
0.1488241003
0.1397029485
0.1282403643
0.1141591824
0.0973388403
0.0778153782
0.0557814392
0.0315862687
0.0057046203
-0.0168264534
-0.0216229799
0.0030172390
0.0643829452
0.1653495651
0.3043792093
0.4755206728
0.6684094350
0.8666266536
1.0355946042
1.1414246857
1.1649426662
1.1018594385
0.9627710206
0.7728570545
0.5597839594
0.3479760993
0.1575630268
0.0021622689
-0.1111206730
-0.1816923230
-0.2121590451
-0.2089568441
-0.1834510268
-0.1452544543
-0.1021745979
-0.0602137557
-0.0235697529
0.0053647313
0.0260089374
0.0401184245
0.0496772138
0.0560029055
0.0602275641
0.0632977184
0.0659743616
0.0688329510
0.0722634086
0.0764701247
0.0814721106
0.0871030352
0.0930531893
0.0995025628
0.1066138731
0.1144370274
0.1230114178
0.1323659211
0.1425188989
0.1534781979
0.1652411492
0.1777945692
0.1911151843
0.2051712443
0.2199210937
0.2353217252
0.2514160076
0.2680742141
0.2851137649
0.3023567830
0.3196300942
0.3367652272
0.3535984136
0.3699705878
0.3857273869
0.4007191510
0.4148009230
0.4278324487
0.4396781766
0.4502072582
0.4592935477
0.4668156023
0.4726566818
0.4767047491
0.4788524699
0.4789959121
0.4768629593
0.4724450809
0.4659422983
0.4575484656
0.4474517342
0.4358345536
0.4228736710
0.4087401314
0.3935992776
0.3776107503
0.3609284878
0.3437007266
0.3260700006
0.3081731403
0.2901411062
0.2720988339
0.2541655207
0.2364546614
0.2190740487
0.2021257732
0.1857062232
0.1699060850
0.1548103425
0.1404982776
0.1270434697
0.1145137965
0.1029713417
0.0924677674
0.0829830792
0.0744509726
0.0668072238
0.0599897597
0.0539386577
0.0485961454
0.0439066010
0.0398165533
0.0362746813
0.0332318145
0.0306409332
0.0284571676
0.0266377989
0.0251422584
0.0239321279
0.0229711399
0.0222251771
0.0216622727
0.0212526104
0.0209685245
0.0207844995
0.0206771705
0.0206253231
0.0206101169
0.0206164153
0.0206318904
0.0206463673
0.0206518213
0.0206423784
0.0206143150
0.0205660579
0.0204981846
0.0204134226
0.0203166503
0.0202148963
0.0201173399
0.0200405901
0.0199976871
0.0199685804
0.0199351530
0.0198834043
0.0198034490
0.0196895183
0.0195399590
0.0193572339
0.0191479217
0.0189227171
0.0186964305
0.0184878254
0.0183184928
0.0182135291
0.0182021423
0.0183176568
0.0185975128
0.0190832663
0.0198205894
0.0208592700
0.0222532119
0.0240604348
0.0262974372
0.0290270416
0.0324824394
0.0368650164
0.0423381885
0.0490274020
0.0570201336
0.0663658900
0.0770762087
0.0891246569
0.1024468326
0.1169403639
0.1324649091
0.1488421571
0.1658558649
0.1832903872
0.2009423621
0.2181814780
0.2343936476
0.2490455947
0.2616848540
0.2719397717
0.2795195048
0.2842140217
0.2858941019
0.2845113359
0.2800981255
0.2727674552
0.2627119815
0.2502048169
0.2355960379
0.2192249900
0.2015990530
0.1832478370
0.1646431961
0.1461992272
0.1282722709
0.1111609113
0.0951059755
0.0802906905
0.0668421412
0.0548306096
0.0442686338
0.0351109949
0.0272565867
0.0205810692
0.0148659829
0.0097203910
0.0045788800
-0.0012984404
-0.0088259374
-0.0190924549
-0.0333613136
-0.0530844978
-0.0786615500
-0.1069909054
-0.1337306810
-0.1537020529
-0.1608892562
-0.1484395853
-0.1086633939
-0.0345547940
0.0770959853
0.2259236156
0.4053159971
0.6023467144
0.7977761735
0.9660537473
1.0752267550
1.0999210399
1.0448435549
0.9221775999
0.7476904002
0.5407331068
0.3242407963
0.1247311196
-0.0385443502
-0.1632096436
-0.2479177835
-0.2940100539
-0.3055164328
-0.2891555948
-0.2543315395
-0.2111944248
-0.1664205073
-0.1248256367
-0.0896878672
-0.0627474577
-0.0442068716
-0.0327305771
-0.0254433652
-0.0198797453
-0.0156979634
-0.0123114861
-0.0092392590
-0.0061057062
-0.0026407307
0.0013202858
0.0058364827
0.0108615209
0.0163443236
0.0224018662
0.0290953653
0.0364750285
0.0445816689
0.0534467051
0.0630921616
0.0735306683
0.0847654608
0.0967903803
0.1095898737
0.1231389934
0.1374033975
0.1523393498
0.1679020294
0.1841716015
0.2010288836
0.2182758745
0.2357222480
0.2531853534
0.2704902146
0.2874695312
0.3039636774
0.3198207029
0.3348963324
0.3490539655
0.3621646773
0.3741071935
0.3847675486
0.3940391695
0.4018231508
0.4080282623
0.4125709488
0.4153753303
0.4163732019
0.4155040338
0.4127149715
0.4079006352
0.4009477758
0.3920543145
0.3814297779
0.3692755943
0.3557852631
0.3411443614
0.3255305441
0.3091135435
0.2920551697
0.2745093104
0.2566219310
0.2385310745
0.2203668614
0.2022514901
0.1842992366
0.1666164543
0.1493015746
0.1324451062
0.1161296357
0.1004298273
0.0854124228
0.0711362416
0.0576521807
0.0450032150
0.0332243969
0.0223428563
0.0123778411
0.0033402571
-0.0048102850
-0.0121327776
-0.0186841314
-0.0245191749
-0.0296906551
-0.0342492369
-0.0382435034
-0.0417199557
-0.0447230132
-0.0472950132
-0.0494762114
-0.0513047791
-0.0528167377
-0.0540459453
-0.0550241734
-0.0557811116
-0.0563443679
-0.0567394681
-0.0569898563
-0.0571168946
-0.0571398633
-0.0570759607
-0.0569403035
-0.0567459267
-0.0565037982
-0.0562228201
-0.0559098137
-0.0555695182
-0.0552045911
-0.0548129608
-0.0543763410
-0.0539031781
-0.0534065170
-0.0528977188
-0.0523864606
-0.0518807353
-0.0513868520
-0.0509094357
-0.0504514275
-0.0500140843
-0.0495969793
-0.0491980014
-0.0488133556
-0.0484375629
-0.0480634603
-0.0476822010
-0.0472832537
-0.0468544036
-0.0463817634
-0.0458501747
-0.0452433049
-0.0445431691
-0.0437300982
-0.0427827392
-0.0416780551
-0.0403913250
-0.0388961437
-0.0372509224
-0.0354011110
-0.0331409678
-0.0302878360
-0.0266822997
-0.0221881156
-0.0166921556
-0.0101045195
-0.0023585492
0.0065891722
0.0167588195
0.0281473261
0.0407283834
0.0544524414
0.0692467082
0.0850151502
0.1016385126
0.1189767008
0.1368455755
0.1547620428
0.1722000455
0.1886831102
0.2037843479
0.2171264531
0.2283817046
0.2372719653
0.2435686818
0.2470928849
0.2477151895
0.2453557944
0.2399834449
0.2316192489
0.2206164770
0.2074231373
0.1924690472
0.1761658333
0.1589069320
0.1410675891
0.1230048595
0.1050576080
0.0875465085
0.0707740199
0.0550229772
0.0405539204
0.0272890251
0.0152650047
0.0046791439
-0.0043888688
-0.0119769412
-0.0182405772
-0.0234528773
-0.0280045381
-0.0324038524
-0.0372767095
-0.0433665948
-0.0515346868
-0.0627600418
-0.0781393632
-0.0988869506
-0.1259730499
-0.1555895985
-0.1814859513
-0.1976122423
-0.1981291254
-0.1774077745
-0.1300298832
-0.0507876453
0.0653660555
0.2213333390
0.4056702736
0.6017998598
0.7914803602
0.9548052998
1.0702034658
1.1144389077
1.0743117131
0.9578120796
0.7803684499
0.5694032179
0.3563033378
0.1653249106
0.0125460334
-0.0957341195
-0.1602929365
-0.1849063219
-0.1762984449
-0.1441417390
-0.1009279843
-0.0570972323
-0.0177897851
0.0138528985
0.0365508838
0.0508848435
0.0592952269
0.0650864699
0.0692493348
0.0725565927
0.0756327823
0.0789324711
0.0827402546
0.0871707570
0.0921699831
0.0977336171
0.1039787733
0.1109672796
0.1187505365
0.1273696749
0.1368554148
0.1472280068
0.1584972315
0.1706623995
0.1837123518
0.1976254595
0.2124101732
0.2281756546
0.2447518673
0.2619358068
0.2795292699
0.2973387742
0.3151756908
0.3328562628
0.3502016058
0.3670377078
0.3831954289
0.3985105018
0.4128235314
0.4259799950
0.4378302421
0.4482294947
0.4570378471
0.4641202660
0.4693465902
0.4725915310
0.4737346722
0.4726598036
0.4691947129
0.4634185271
0.4555450811
0.4457827664
0.4343345311
0.4213978802
0.4071648780
0.3918229822
0.3755561898
0.3585433417
0.3409578355
0.3229676252
0.3047352215
0.2864176918
0.2681666600
0.2501283066
0.2324433690
0.2152471407
0.1986694724
0.1828347709
0.1678619987
0.1538646645
0.1409494136
0.1291469862
0.1184062522
0.1086758108
0.0999050019
0.0920439063
0.0850433455
0.0788548818
0.0734308183
0.0687241966
0.0646875982
0.0612711552
0.0584252167
0.0561008722
0.0542499524
0.0528250284
0.0517794123
0.0510671569
0.0506430557
0.0504626432
0.0504821943
0.0506587249
0.0509499918
0.0513175651
0.0517570092
0.0522600986
0.0528143806
0.0534080994
0.0540301960
0.0546703088
0.0553187728
0.0559666201
0.0566055799
0.0572280783
0.0578272390
0.0583980495
0.0589396752
0.0594526251
0.0599381051
0.0603980181
0.0608349641
0.0612522400
0.0616538396
0.0620444539
0.0624294706
0.0628149746
0.0632259713
0.0636745202
0.0641499398
0.0646530869
0.0651964199
0.0658040309
0.0665116474
0.0673666316
0.0684279806
0.0697663267
0.0714639369
0.0736147132
0.0763241928
0.0797095473
0.0838988458
0.0890293144
0.0952226321
0.1025537459
0.1112060168
0.1213106791
0.1329303906
0.1460592323
0.1606227087
0.1764777476
0.1934127002
0.2111473412
0.2293328685
0.2475519035
0.2653184909
0.2820780989
0.2973109346
0.3105603912
0.3213301548
0.3292339627
0.3339969272
0.3354555357
0.3335576511
0.3283625110
0.3200407287
0.3088745878
0.2952588668
0.2796999837
0.2628157321
0.2451884363
0.2272296181
0.2094302707
0.1922101215
0.1759151757
0.1608177170
0.1471163071
0.1349357860
0.1243272717
0.1152681617
0.1076621683
0.1013393231
0.0961474003
0.0918850822
0.0874790983
0.0818151877
0.0738297648
0.0625099190
0.0468934147
0.0260686916
-0.0005435664
-0.0291858279
-0.0528729996
-0.0643697541
-0.0562473844
-0.0208838040
0.0495364527
0.1613754779
0.3130280931
0.4954007431
0.6925977262
0.8819211947
1.0338711545
1.1118095279
1.0947222832
1.0025324582
0.8585748827
0.6855670468
0.5056091008
0.3401838548
0.2123993148
0.1350876189
0.1038897254
0.1105484773
0.1431888270
0.1866807381
0.2292337364
0.2648666982
0.2906121378
0.3064855650
0.3154594560
0.3209146616
0.3243312896
0.3269209470
0.3295159451
0.3325692993
0.3361563175
0.3402771077
0.3450747630
0.3506307365
0.3570147620
0.3642847849
0.3724871062
0.3816563986
0.3918157068
0.4029764472
0.4151384080
0.4283522088
0.4426215106
0.4577733348
0.4736276716
0.4900002458
0.5067031083
0.5235441565
0.5403268897
0.5568504086
0.5729094159
0.5882942156
0.6027907135
0.6161804170
0.6282404350
0.6387434783
0.6474578589
0.6541474908
0.6585718896
0.6605106489
0.6599598568
0.6570166289
0.6517917864
0.6444098225
0.6350089025
0.6237408635
0.6107712144
0.5962791362
0.5804574818
0.5635127759
0.5456650265
0.5271467526
0.5082037039
0.4890953009
0.4700946364
0.4514884748
0.4335768569
0.4165569889
0.4004701666
0.3853586461
0.3712549919
0.3581820767
0.3461530816
0.3351714963
0.3252312358
0.3163168475
0.3084032432
0.3014556428
0.2954295748
0.2902708758
0.2859156909
0.2822904736
0.2793119857
0.2768872973
0.2749137870
0.2732791158
0.2719080832
0.2708105392
0.2699525534
0.2693010846
0.2688254625
0.2684973877
0.2682909316
0.2681825363
0.2681510150
0.2681775516
0.2682457011
0.2683413891
0.2684529122
0.2685709378
0.2686885041
0.2688010205
0.2689062668
0.2690043939
0.2690979236
0.2691917486
0.2693109843
0.2694777765
0.2696551081
0.2698137138
0.2699344395
0.2700089361
0.2700392439
0.2700374170
0.2700255202
0.2700356295
0.2701098319
0.2703002255
0.2706689195
0.2712880342
0.2722397008
0.2736160617
0.2755192703
0.2780614911
0.2812982697
0.2853049927
0.2904386899
0.2969855226
0.3051425968
0.3150179638
0.3266306196
0.3399105050
0.3546985060
0.3707464532
0.3877171224
0.4051842928
0.4226332207
0.4394603904
0.4549732338
0.4683822473
0.4789916950
0.4864499315
0.4905297260
0.4911097087
0.4881743712
0.4818140661
0.4722250072
0.4597092697
0.4446747897
0.4276353646
0.4092106530
0.3901261747
0.3712133107
0.3533674651
0.3366499394
0.3213269383
0.3077913506
0.2962508025
0.2867276571
0.2790590153
0.2728965031
0.2677042811
0.2627599400
0.2571557904
0.2497988803
0.2394173305
0.2238726058
0.2016579177
0.1742528253
0.1462311290
0.1252608699
0.1205863754
0.1447253148
0.2082625520
0.3160034077
0.4669738439
0.6559207342
0.8654007735
1.0440288575
1.1524752965
1.1695150170
1.0920275620
0.9349970906
0.7313373637
0.5198199747
0.3262952873
0.1686043351
0.0573613547
-0.0040480184
-0.0194667826
0.0000334298
0.0373752413
0.0810385897
0.1230314257
0.1577697399
0.1825296402
0.1974473521
0.2055192183
0.2108447500
0.2143689848
0.2170720261
0.2196908255
0.2226987324
0.2263054944
0.2304747854
0.2352661245
0.2407909688
0.2471199617
0.2543134693
0.2624215798
0.2714839328
0.2815274939
0.2925671907
0.3046076328
0.3176836175
0.3317693762
0.3467470757
0.3624881728
0.3788535420
0.3956934754
0.4128476824
0.4301452904
0.4474048442
0.4644343060
0.4810310379
0.4969815820
0.5120617297
0.5260366869
0.5386610767
0.5496789399
0.5588237351
0.5658652975
0.5707195006
0.5733349441
0.5736863605
0.5717751326
0.5676312809
0.5613130743
0.5529053537
0.5425194807
0.5302933381
0.5163913294
0.5010043795
0.4843499340
0.4666719595
0.4482409439
0.4293538958
0.4103343448
0.3914597076
0.3728494027
0.3546705971
0.3370744935
0.3201932565
0.3041400123
0.2890088491
0.2748748168
0.2617939273
0.2498031540
0.2389204324
0.2291446598
0.2204555987
0.2128121020
0.2061522878
0.2003951747
0.1954407430
0.1911699818
0.1875225292
0.1844737457
0.1819568071
0.1799089056
0.1782712502
0.1769890666
0.1760115970
0.1752921004
0.1747878604
0.1744603935
0.1742754681
0.1742028809
0.1742164453
0.1742939912
0.1744173653
0.1745724310
0.1747490682
0.1749411735
0.1751466601
0.1753640509
0.1755812683
0.1757931656
0.1759964598
0.1761888231
0.1763688828
0.1765362213
0.1766913763
0.1768358404
0.1769720616
0.1771034429
0.1772343424
0.1773700736
0.1775169048
0.1776820598
0.1778737171
0.1780951469
0.1783321255
0.1786352572
0.1790726726
0.1797201323
0.1806610275
0.1819863792
0.1837948388
0.1861926878
0.1892938003
0.1932186152
0.1980940105
0.2040544318
0.2112419549
0.2198062857
0.2299047606
0.2417474754
0.2559760476
0.2721619631
0.2895861135
0.3075818561
0.3255350138
0.3428838753
0.3591191931
0.3737840667
0.3864738627
0.3968363942
0.4045719399
0.4094332441
0.4112255169
0.4098064338
0.4050861361
0.3970272306
0.3856447898
0.3712391646
0.3546662871
0.3367045900
0.3180439474
0.2992860479
0.2809443942
0.2634443037
0.2471229081
0.2322291534
0.2189238001
0.2072794229
0.1972804111
0.1888229683
0.1817422599
0.1758192462
0.1703751726
0.1644879211
0.1570315508
0.1466762981
0.1318885764
0.1109590185
0.0840535446
0.0553748930
0.0312322048
0.0198514027
0.0313744679
0.0751688085
0.1605480435
0.2915444662
0.4625973485
0.6585529401
0.8549882335
1.0133104068
1.0979995446
1.0913245243
0.9935604316
0.8229885601
0.6153792189
0.4005197332
0.1982032644
0.0255639535
-0.1068232903
-0.1949429143
-0.2412425287
-0.2500197892
-0.2311515361
-0.1957604159
-0.1529410098
-0.1097598332
-0.0712553362
-0.0404378883
-0.0182694808
-0.0031900834
0.0067955190
0.0132078016
0.0173412212
0.0202642161
0.0228192062
0.0256225928
0.0290647589
0.0333100690
0.0382968690
0.0437374866
0.0495096158
0.0559244180
0.0630446237
0.0709207652
0.0795926785
0.0890895027
0.0994296802
0.1106209568
0.1226603816
0.1355343071
0.1492183889
0.1636775861
0.1788661563
0.1948186336
0.2115236916
0.2287732335
0.2463642012
0.2641005377
0.2817931874
0.2992600959
0.3163262101
0.3328234782
0.3485908497
0.3634742754
0.3773267073
0.3900080988
0.4013854044
0.4113325414
0.4197302620
0.4264662752
0.4314352911
0.4345390214
0.4356861787
0.4347924772
0.4317492009
0.4264362809
0.4190328488
0.4097448496
0.3987721098
0.3863084014
0.3725413224
0.3576522825
0.3418165026
0.3252030152
0.3079746640
0.2902881043
0.2722938025
0.2541360369
0.2359528967
0.2178762827
0.2000319073
0.1825392939
0.1655117777
0.1490565050
0.1332744336
0.1182603328
0.1041027832
0.0908841769
0.0786802841
0.0675148379
0.0573364788
0.0480903027
0.0397226344
0.0321812703
0.0254157526
0.0193769175
0.0140168294
0.0092887805
0.0051472909
0.0015481087
-0.0015517901
-0.0041942016
-0.0064196941
-0.0082676077
-0.0097760548
-0.0109819197
-0.0119208591
-0.0126272823
-0.0131342347
-0.0134734750
-0.0136755337
-0.0137697134
-0.0137840887
-0.0137354409
-0.0136199499
-0.0134446251
-0.0132163165
-0.0129412793
-0.0126255926
-0.0122757381
-0.0118977473
-0.0114970551
-0.0110785009
-0.0106463275
-0.0102041819
-0.0097551150
-0.0093015814
-0.0088454399
-0.0083879530
-0.0079297871
-0.0074710128
-0.0070111042
-0.0065489395
-0.0060828010
-0.0056103747
-0.0051287504
-0.0046344220
-0.0041232873
-0.0035908435
-0.0030745632
-0.0025678298
-0.0020140056
-0.0013532869
-0.0005225422
0.0005449571
0.0019191767
0.0036732486
0.0058834709
0.0086293081
0.0119933907
0.0160615156
0.0209226458
0.0266689105
0.0333956051
0.0412011913
0.0501872970
0.0604587162
0.0721234063
0.0853007776
0.1000893331
0.1161655974
0.1331227486
0.1505613778
0.1680894887
0.1853224976
0.2018832335
0.2174019381
0.2315162659
0.2438716110
0.2541217601
0.2619280952
0.2669594115
0.2688919164
0.2674080836
0.2623533297
0.2541117627
0.2431552599
0.2299390551
0.2149017389
0.1984652578
0.1810349151
0.1629993707
0.1447306405
0.1265840973
0.1088984702
0.0919958446
0.0761816625
0.0617447225
0.0490128919
0.0382159808
0.0290520843
0.0211589197
0.0141515423
0.0076217240
0.0011364775
-0.0057602888
-0.0135473283
-0.0227260559
-0.0338205489
-0.0473775458
-0.0639664475
-0.0841793163
-0.1086308765
-0.1376479850
-0.1642854383
-0.1767443713
-0.1656725265
-0.1243723531
-0.0488010018
0.0624296755
0.2080531203
0.3841480668
0.5842682893
0.7855621925
0.9509447851
1.0535160109
1.0778367986
1.0199290621
0.8872764076
0.6988261167
0.4848394699
0.2718670979
0.0741157522
-0.0963729454
-0.2314362337
-0.3267902120
-0.3820298404
-0.4006289395
-0.3899401904
-0.3602347964
-0.3191742561
-0.2739517922
-0.2303095509
-0.1922928755
-0.1622503065
-0.1408335817
-0.1269976364
-0.1180006028
-0.1111665862
-0.1060967610
-0.1021212056
-0.0986788307
-0.0953180519
-0.0916976181
-0.0875893382
-0.0828754792
-0.0775478130
-0.0717075360
-0.0653817492
-0.0584479300
-0.0508539331
-0.0425568590
-0.0335230531
-0.0237281059
-0.0131568534
-0.0018033767
0.0103289980
0.0232276984
0.0368708711
0.0512273593
0.0662567556
0.0819094076
0.0981264176
0.1148553234
0.1321840820
0.1499668558
0.1679916360
0.1860562343
0.2039692359
0.2215536567
0.2386437268
0.2550834973
0.2707268401
0.2854374482
0.2990888352
0.3115643359
0.3227571056
0.3325701207
0.3409161785
0.3477178970
0.3529077151
0.3564278928
0.3582305107
0.3582774703
0.3565404942
0.3530011255
0.3476507285
0.3404727387
0.3314673468
0.3208109107
0.3086908149
0.2952885178
0.2807795519
0.2653326591
0.2491059296
0.2322499209
0.2149092629
0.1972226596
0.1793228887
0.1613368018
0.1433853245
0.1255834562
0.1080402702
0.0908589137
0.0741366077
0.0579646472
0.0424284012
0.0276073123
0.0135749413
0.0003990339
-0.0118581045
-0.0231801257
-0.0336054474
-0.0431748634
-0.0519290545
-0.0599085883
-0.0671539193
-0.0737053889
-0.0796026610
-0.0848817961
-0.0895774086
-0.0937239972
-0.0973559474
-0.1005075317
-0.1032129093
-0.1055061264
-0.1074211163
-0.1089916988
-0.1102515808
-0.1112343561
-0.1119735054
-0.1125023962
-0.1128542829
-0.1130623069
-0.1131594963
-0.1131747616
-0.1131054812
-0.1129552126
-0.1127306142
-0.1124378363
-0.1120825209
-0.1116698015
-0.1112043035
-0.1106903669
-0.1101333869
-0.1095389196
-0.1089120155
-0.1082572166
-0.1075785569
-0.1068795618
-0.1061632486
-0.1054321262
-0.1046881954
-0.1039329484
-0.1031673694
-0.1023919343
-0.1016066104
-0.1008108570
-0.1000036697
-0.0991837182
-0.0983492103
-0.0974978458
-0.0966268158
-0.0957306009
-0.0947950723
-0.0938215457
-0.0928075798
-0.0917435014
-0.0906123679
-0.0893897071
-0.0880436722
-0.0865351833
-0.0848179286
-0.0828383643
-0.0805357142
-0.0778419705
-0.0746818930
-0.0709730095
-0.0666256157
-0.0615427754
-0.0556203202
-0.0487468495
-0.0408037311
-0.0316651001
-0.0210158852
-0.0087288251
0.0049861216
0.0199123006
0.0358267111
0.0525000063
0.0696964931
0.0871741323
0.1046845383
0.1219729310
0.1387777410
0.1548308162
0.1698576560
0.1835774136
0.1957028960
0.2059405639
0.2139905319
0.2195465683
0.2222960953
0.2219201889
0.2181046454
0.2109154207
0.2008724831
0.1884911305
0.1742525573
0.1586040423
0.1419588191
0.1246959853
0.1071605030
0.0896631980
0.0724807600
0.0558557432
0.0399965653
0.0250775083
0.0112388037
-0.0014125565
-0.0128031823
-0.0228938122
-0.0316793212
-0.0391804887
-0.0447312865
-0.0488343593
-0.0527028687
-0.0573687597
-0.0636827610
-0.0723143846
-0.0837519259
-0.0983024640
-0.1160918612
-0.1370647636
-0.1609846004
-0.1874335847
-0.2164960511
-0.2412352648
-0.2501950774
-0.2346328672
-0.1885791571
-0.1088376154
0.0050149451
0.1506285241
0.3228794658
0.5138706306
0.7127745997
0.8970665505
1.0349700681
1.1044108217
1.0944671250
1.0053699356
0.8485026403
0.6472261079
0.4314811131
0.2257986459
0.0477952757
-0.0918268487
-0.1880802585
-0.2379541509
-0.2514404962
-0.2391514716
-0.2102429534
-0.1724145168
-0.1319094361
-0.0935146844
-0.0605609340
-0.0349225561
-0.0170176304
-0.0054148495
0.0024891061
0.0078817033
0.0117196604
0.0147941236
0.0177306671
0.0209892928
0.0248644306
0.0294849383
0.0348141016
0.0406496340
0.0469395387
0.0538944877
0.0615713960
0.0700164316
0.0792650168
0.0893418280
0.1002607960
0.1120251056
0.1246271959
0.1380487599
0.1522607453
0.1672233534
0.1828860401
0.1992211955
0.2162729586
0.2338617347
0.2517865788
0.2698536498
0.2878762115
0.3056746316
0.3230763821
0.3399160395
0.3560352844
0.3712829020
0.3855147813
0.3985939161
0.4103904043
0.4207814480
0.4296513440
0.4368912749
0.4423993091
0.4460806103
0.4478474463
0.4476191893
0.4452925489
0.4407380273
0.4341194640
0.4256312299
0.4154623662
0.4037966105
0.3908123942
0.3766828189
0.3615756553
0.3456533437
0.3290729932
0.3119863826
0.2945399597
0.2768748416
0.2591268148
0.2414263348
0.2238985265
0.2066631842
0.1898347713
0.1735224205
0.1578299337
0.1428557822
0.1286931064
0.1154297160
0.1031480901
0.0918987386
0.0816419049
0.0723262387
0.0639014192
0.0563180784
0.0495279702
0.0434839728
0.0381399172
0.0334505797
0.0293716817
0.0258598899
0.0228728160
0.0203690168
0.0183079945
0.0166501963
0.0153570147
0.0143907870
0.0137147961
0.0132932698
0.0130913856
0.0130755211
0.0132133901
0.0134736844
0.0138260413
0.0142424074
0.0147207756
0.0152588273
0.0158493714
0.0164857629
0.0171619004
0.0178721725
0.0186114505
0.0193751482
0.0201592252
0.0209601869
0.0217750847
0.0226015155
0.0234376222
0.0242820934
0.0251341636
0.0259936130
0.0268607676
0.0277364995
0.0286222261
0.0295199110
0.0304320634
0.0313617384
0.0323125370
0.0332886057
0.0342948292
