ECG
1.0497368705
1.0062066045
0.8927168790
0.7299660389
0.5397233423
0.3428568348
0.1593333496
0.0056073120
-0.1126880001
-0.1942023944
-0.2399763466
-0.2534415577
-0.2404209540
-0.2091286874
-0.1696286670
-0.1289133799
-0.0911270300
-0.0591229811
-0.0344539643
-0.0173720784
-0.0068287898
-0.0004749324
0.0042431521
0.0077065096
0.0104203268
0.0128081324
0.0151984364
0.0178259216
0.0208303444
0.0242561034
0.0280523239
0.0322076814
0.0368201682
0.0419426169
0.0476223932
0.0539013961
0.0608160575
0.0683973428
0.0766707500
0.0856563107
0.0953685895
0.1058166841
0.1170042253
0.1289293772
0.1415887144
0.1550089893
0.1691274695
0.1838512768
0.1990835131
0.2147232605
0.2306655814
0.2468013150
0.2630162586
0.2791918705
0.2952055890
0.3109308325
0.3262369999
0.3409894699
0.3550496018
0.3682747348
0.3805181885
0.3916292625
0.4014532367
0.4098313712
0.4166055136
0.4216953653
0.4250764634
0.4267352838
0.4266717319
0.4248991432
0.4214442825
0.4163473449
0.4096619549
0.4014551669
0.3918074649
0.3808127631
0.3685783522
0.3552246497
0.3408853945
0.3257077550
0.3098523296
0.2934931463
0.2768176629
0.2600267670
0.2433163619
0.2267624900
0.2104665443
0.1945329230
0.1790553886
0.1641170684
0.1497904543
0.1361374029
0.1232091355
0.1110462380
0.0996786610
0.0891257196
0.0793960939
0.0704878283
0.0623883320
0.0550743789
0.0485121076
0.0426573484
0.0374574372
0.0328499365
0.0287693698
0.0252108466
0.0221413598
0.0195176357
0.0172987620
0.0154461872
0.0139237211
0.0126975342
0.0117361584
0.0110104867
0.0104937728
0.0101616319
0.0099920400
0.0099653343
0.0100642129
0.0102737351
0.0105813214
0.0109767530
0.0114521726
0.0120020836
0.0126233506
0.0133130981
0.0140593942
0.0148569671
0.0157011180
0.0165872553
0.0175109012
0.0184676917
0.0194533763
0.0204638187
0.0214949960
0.0225429993
0.0236040334
0.0246744169
0.0257505821
0.0268290752
0.0279065561
0.0289797984
0.0300456896
0.0311012310
0.0321435376
0.0331698381
0.0341774751
0.0351639050
0.0361266977
0.0370635373
0.0379722214
0.0388509827
0.0397008295
0.0405241825
0.0413235836
0.0421016884
0.0428612661
0.0436189906
0.0444001105
0.0451902598
0.0459806477
0.0467699976
0.0475645465
0.0483780457
0.0492317604
0.0501544697
0.0511824668
0.0523595588
0.0537370667
0.0553738258
0.0573361850
0.0596980075
0.0625406702
0.0659530642
0.0700315945
0.0748801801
0.0806100747
0.0873383153
0.0951968595
0.1042809874
0.1145966132
0.1261145718
0.1387723745
0.1524742095
0.1670909412
0.1824601107
0.1983859359
0.2146393110
0.2309578068
0.2470456708
0.2625738269
0.2771798758
0.2904680946
0.3020094371
0.3113415334
0.3179731936
0.3216248544
0.3223761813
0.3203595688
0.3157323046
0.3086765691
0.2993995822
0.2881351719
0.2751432284
0.2607085642
0.2451408848
0.2287747885
0.2119697666
0.1951102034
0.1786053762
0.1628894550
0.1483181530
0.1348310313
0.1225528328
0.1115900159
0.1019943851
0.0937630905
0.0868386285
0.0811088410
0.0764069162
0.0725113880
0.0691461362
0.0659803867
0.0626287110
0.0586510268
0.0536500209
0.0460824262
0.0341700037
0.0172332251
-0.0042979247
-0.0288839212
-0.0538757004
-0.0757209821
-0.0884605517
-0.0842313361
-0.0566507570
-0.0009410541
0.0860707154
0.2059526764
0.3587674695
0.5366783941
0.7201712550
0.8889375344
1.0227403711
1.1014145606
1.1059430231
1.0339255340
0.8986322907
0.7189467366
0.5191521147
0.3277407406
0.1619874180
0.0308842989
-0.0608397578
-0.1134448489
-0.1305767090
-0.1195862487
-0.0907468885
-0.0526994043
-0.0124007103
0.0248761405
0.0555419571
0.0778186467
0.0927615110
0.1023976252
0.1084387266
0.1122777841
0.1149889986
0.1173278026
0.1197308607
0.1223160690
0.1250265339
0.1280455258
0.1314338458
0.1352400211
0.1395104999
0.1442897737
0.1496224045
0.1555527165
0.1621230152
0.1693735271
0.1773424004
0.1860667005
0.1955772033
0.2058828356
0.2169797582
0.2288523406
0.2414731613
0.2548030078
0.2687908762
0.2833739718
0.2984777085
0.3140157093
0.3298898060
0.3459900393
0.3621946587
0.3783701227
0.3943710987
0.4100404629
0.4252093004
0.4396969053
0.4533105447
0.4658407317
0.4771238330
0.4870583612
0.4955228876
0.5024155119
0.5076538859
0.5111752136
0.5129362508
0.5129133055
0.5111022379
0.5075184599
0.5021969357
0.4951921814
0.4865782655
0.4764488080
0.4649169815
0.4521155101
0.4381966705
0.4233322911
0.4077137524
0.3915519870
0.3750774797
0.3584941776
0.3418549646
0.3252860801
0.3089162441
0.2928665861
0.2772457517
0.2621496562
0.2476614852
0.2338516940
0.2207780081
0.2084854227
0.1970062033
0.1863598851
0.1765532733
0.1675804433
0.1594227402
0.1520487791
0.1454144454
0.1394628940
0.1341245501
0.1293367075
0.1251017492
0.1213785132
0.1181221584
0.1152904060
0.1128435398
0.1107444058
0.1089583655
0.1074518809
0.1061923148
0.1051495189
0.1042959072
0.1036064561
0.1030587044
0.1026327535
0.1023112668
0.1020794706
0.1019251532
0.1018386656
0.1018129210
0.1018433951
0.1019281259
0.1020677140
0.1022568847
0.1024853096
0.1027521100
0.1030565763
0.1033981074
0.1037762103
0.1041905001
0.1046407005
0.1051266429
0.1056482256
0.1062038167
0.1067897595
0.1074023621
0.1080380412
0.1086933214
0.1093648357
0.1100493252
0.1107436392
0.1114447355
0.1121496799
0.1128556463
0.1135599172
0.1142598830
0.1149530424
0.1156370024
0.1163094782
0.1169682933
0.1176113792
0.1182427485
0.1188808297
0.1195123257
0.1201278228
0.1207263167
0.1213152128
0.1219103729
0.1225384381
0.1232379570
0.1240562028
0.1250488589
0.1262800179
0.1278221823
0.1297562638
0.1321715839
0.1351658733
0.1388000763
0.1431145784
0.1483301295
0.1546308066
0.1621505423
0.1709731249
0.1811321985
0.1926112627
0.2053436728
0.2192126397
0.2340512302
0.2496423664
0.2657188264
0.2819632436
0.2980081073
0.3134357310
0.3278184349
0.3407504364
0.3517978231
0.3606036088
0.3668907047
0.3704619199
0.3711999610
0.3690674323
0.3641068360
0.3564405717
0.3462709368
0.3338801266
0.3196302336
0.3039632485
0.2874010592
0.2705454517
0.2538524748
0.2375324461
0.2218652946
0.2070829029
0.1933690169
0.1808592455
0.1696410609
0.1597537980
0.1511886747
0.1438905752
0.1377593064
0.1326466959
0.1283564271
0.1246440468
0.1214231566
0.1186001731
0.1142699733
0.1068762828
0.0954498450
0.0796084218
0.0595567931
0.0360867572
0.0105769700
-0.0151914085
-0.0331287347
-0.0337431459
-0.0097938473
0.0437088883
0.1295037203
0.2480782402
0.3976689720
0.5751979148
0.7671923747
0.9380181436
1.0593941251
1.1133921244
1.0924392861
0.9993184247
0.8471680242
0.6594384856
0.4634467098
0.2777438675
0.1158393075
-0.0129644752
-0.1035718394
-0.1550939980
-0.1708490175
-0.1583618185
-0.1288102380
-0.0904892432
-0.0496835606
-0.0114388978
0.0207896752
0.0451377266
0.0613314622
0.0706877258
0.0761139991
0.0802484046
0.0831560329
0.0853599841
0.0872871168
0.0892626573
0.0915096215
0.0941487954
0.0971987350
0.1005926903
0.1043942689
0.1086799218
0.1135003959
0.1189016272
0.1249247403
0.1316060491
0.1389770558
0.1470644521
0.1558901182
0.1654711232
0.1758197252
0.1869717817
0.1990788961
0.2120627149
0.2258032040
0.2401803720
0.2550742699
0.2703649885
0.2859314933
0.3016498635
0.3173957689
0.3330449220
0.3484730780
0.3635560344
0.3781696317
0.3921897527
0.4054923229
0.4179533104
0.4294487261
0.4398546232
0.4490470977
0.4569022881
0.4632963756
0.4681055839
0.4712061796
0.4724744714
0.4717789570
0.4688481930
0.4637550235
0.4567079760
0.4479078008
0.4375474717
0.4258121869
0.4128806590
0.3989273172
0.3841191275
0.3686152345
0.3525670063
0.3361180337
0.3194041310
0.3025533352
0.2856859066
0.2689143285
0.2523433073
0.2360697725
0.2201828766
0.2047639953
0.1898867273
0.1756168943
0.1620125413
0.1491239361
0.1369935698
0.1256561566
0.1151386336
0.1054601610
0.0966321222
0.0886581237
0.0815300083
0.0752027950
0.0696167419
0.0647136933
0.0604377299
0.0567351685
0.0535545627
0.0508467021
0.0485646129
0.0466635576
0.0451010353
0.0438367811
0.0428327668
0.0420532004
0.0414645265
0.0410354259
0.0407368158
0.0405418499
0.0404259181
0.0403666470
0.0403438992
0.0403397739
0.0403386067
0.0403269696
0.0402936709
0.0402297553
0.0401298282
0.0399955974
0.0398325859
0.0396481398
0.0394402692
0.0392069645
0.0389488654
0.0386669034
0.0383623021
0.0380365765
0.0376915340
0.0373292735
0.0369521860
0.0365629541
0.0361645525
0.0357602476
0.0353535978
0.0349484533
0.0345489561
0.0341595403
0.0337849316
0.0334301476
0.0331004979
0.0328015838
0.0325392987
0.0323186984
0.0321405902
0.0320049331
0.0319119775
0.0318622659
0.0318566325
0.0318962036
0.0319823972
0.0321169231
0.0323017832
0.0325392710
0.0328319721
0.0331766267
0.0335896948
0.0341275530
0.0348507121
0.0358228381
0.0371107522
0.0387844307
0.0409170050
0.0435847617
0.0468671426
0.0508467444
0.0556093193
0.0612437743
0.0678432195
0.0755085487
0.0843444319
0.0944611231
0.1060709997
0.1190512909
0.1331134794
0.1479670702
0.1633195907
0.1788765907
0.1943416423
0.2094163401
0.2238003010
0.2371911643
0.2492845918
0.2597742675
0.2683518980
0.2747072120
0.2785279608
0.2794999181
0.2773099978
0.2719519119
0.2638520736
0.2534473925
0.2411547101
0.2273697879
0.2124631412
0.1967835655
0.1806597871
0.1644004643
0.1482941870
0.1326094769
0.1175947876
0.1034785044
0.0904689443
0.0787543563
0.0685935981
0.0610606832
0.0556680150
0.0515328153
0.0478787404
0.0440358820
0.0394407662
0.0336363545
0.0262720431
0.0171036631
0.0059934806
-0.0070898033
-0.0220710528
-0.0387686970
-0.0568939740
-0.0760472505
-0.0957202504
-0.1152978888
-0.1312572807
-0.1326583656
-0.1111773173
-0.0609555490
0.0214568880
0.1371013046
0.2846103733
0.4604598807
0.6463088397
0.8152736933
0.9450364571
1.0180170840
1.0213734644
0.9488071363
0.8140585303
0.6392128361
0.4447977884
0.2496984175
0.0711570494
-0.0763231791
-0.1878153003
-0.2634493297
-0.3051173453
-0.3164706241
-0.3029186437
-0.2716290796
-0.2315276838
-0.1913215969
-0.1546335548
-0.1234105253
-0.0987624465
-0.0809622262
-0.0694457428
-0.0628118442
-0.0588223489
-0.0556390738
-0.0531357273
-0.0509904525
-0.0489355231
-0.0467575092
-0.0442972779
-0.0414499929
-0.0381651145
-0.0344463999
-0.0303354566
-0.0257793989
-0.0207133814
-0.0150850029
-0.0088491208
-0.0019682658
0.0055876930
0.0138415609
0.0228088174
0.0324976163
0.0429087858
0.0540358282
0.0658649200
0.0783749122
0.0915373299
0.1053163725
0.1196689813
0.1346744145
0.1503002003
0.1663549970
0.1826557139
0.1990275114
0.2153038006
0.2313262437
0.2469447539
0.2620174953
0.2764108829
0.2899995326
0.3026658839
0.3143004126
0.3248018437
0.3340771530
0.3420415676
0.3486185651
0.3537398746
0.3573454758
0.3593835993
0.3598107271
0.3585915916
0.3556991765
0.3511147166
0.3448229091
0.3367579307
0.3270502899
0.3158913923
0.3034649018
0.2899467399
0.2755050864
0.2603003792
0.2444853139
0.2282048443
0.2115961823
0.1947887804
0.1779041854
0.1610562651
0.1443513607
0.1278880869
0.1117573167
0.0960421809
0.0808180685
0.0661526264
0.0521057595
0.0387296308
0.0260686613
0.0141595299
0.0030311736
-0.0072952125
-0.0168057932
-0.0254816800
-0.0333539672
-0.0404743622
-0.0468929186
-0.0526580360
-0.0578164599
-0.0624132822
-0.0664919407
-0.0700942190
-0.0732601421
-0.0760269059
-0.0784293171
-0.0805005172
-0.0822719937
-0.0837735799
-0.0850334555
-0.0860781461
-0.0869325235
-0.0876198053
-0.0881615553
-0.0885776835
-0.0888864457
-0.0891044439
-0.0892466262
-0.0893262867
-0.0893550655
-0.0893429488
-0.0892982689
-0.0892277041
-0.0891362789
-0.0890273636
-0.0889026748
-0.0887622750
-0.0886045728
-0.0884264627
-0.0882249924
-0.0879967415
-0.0877365026
-0.0874373944
-0.0870909603
-0.0866995212
-0.0862749394
-0.0858254528
-0.0853586049
-0.0848812447
-0.0843995268
-0.0839189113
-0.0834441639
-0.0829793558
-0.0825278639
-0.0820923705
-0.0816748634
-0.0812766363
-0.0808982880
-0.0805397232
-0.0802001519
-0.0798780900
-0.0795713585
-0.0792770844
-0.0789915809
-0.0787086701
-0.0784200877
-0.0781168387
-0.0777892337
-0.0774268888
-0.0770187257
-0.0765529716
-0.0760171592
-0.0753981270
-0.0746820188
-0.0738542841
-0.0729066800
-0.0719613799
-0.0709258969
-0.0696240217
-0.0678963254
-0.0656001597
-0.0626096568
-0.0588157293
-0.0541260705
-0.0484651540
-0.0417742340
-0.0340113452
-0.0251513027
-0.0151857966
-0.0041249795
0.0080025844
0.0211508673
0.0352569242
0.0502410297
0.0660066781
0.0824405827
0.0993699722
0.1163731905
0.1329766998
0.1487504131
0.1633077729
0.1763057518
0.1874448521
0.1964691058
0.2031660748
0.2073668508
0.2089460553
0.2078218396
0.2039546933
0.1973586213
0.1883287904
0.1772347685
0.1644358983
0.1502813665
0.1351116027
0.1192582137
0.1030426372
0.0867760858
0.0707595467
0.0552837823
0.0406293296
0.0270350603
0.0144313183
0.0029591923
-0.0072204157
-0.0160189892
-0.0234203972
-0.0294808948
-0.0343291224
-0.0381661060
-0.0412652576
-0.0439723745
-0.0467056399
-0.0499556226
-0.0542852769
-0.0603299429
-0.0720214316
-0.1004479783
-0.1386542179
-0.1786531750
-0.2135522165
-0.2375514978
-0.2459443844
-0.2351177058
-0.2025517551
-0.1468202897
-0.0675905307
0.0343768368
0.1572276637
0.2980143370
0.4526957796
0.6161374506
0.7821113452
0.9302104856
1.0270726977
1.0572643838
1.0152799714
0.9055057933
0.7422200874
0.5495107561
0.3523480378
0.1675396499
0.0080402882
-0.1177103053
-0.2057870507
-0.2567794760
-0.2753893774
-0.2665294274
-0.2391275428
-0.2017183575
-0.1611420594
-0.1225443906
-0.0893766470
-0.0633956787
-0.0446638897
-0.0312422848
-0.0213228863
-0.0142109401
-0.0092748301
-0.0059429205
-0.0037035553
-0.0021050590
-0.0007557362
0.0006761284
0.0024622700
0.0048144435
0.0078844237
0.0117640053
0.0164850055
0.0220193685
0.0282791540
0.0351160233
0.0423214879
0.0499537666
0.0582537699
0.0672580628
0.0769916963
0.0874682074
0.0986896193
0.1106464413
0.1233176686
0.1366707824
0.1506617501
0.1652350253
0.1803235472
0.1958487415
0.2117205197
0.2278372794
0.2440859044
0.2603417643
0.2764687150
0.2923681284
0.3079514584
0.3230185501
0.3373824978
0.3508728542
0.3633354738
0.3746324989
0.3846423598
0.3932597747
0.4003957501
0.4059775800
0.4099488469
0.4122694209
0.4129154603
0.4118794113
0.4091700081
0.4048122729
0.3988475159
0.3913333353
0.3823346998
0.3718369567
0.3599873596
0.3469792676
0.3329971608
0.3182166409
0.3028044310
0.2869183753
0.2707074280
0.2543108808
0.2378578839
0.2214686926
0.2052547687
0.1893186981
0.1737541881
0.1586460674
0.1440702859
0.1300939149
0.1167751471
0.1041632965
0.0922987985
0.0812132097
0.0709292082
0.0614605984
0.0528445368
0.0450744279
0.0380957288
0.0318555792
0.0263028020
0.0213879024
0.0170630688
0.0132821721
0.0100007662
0.0071760981
0.0047680641
0.0027399869
0.0010570547
-0.0003138616
-0.0014042083
-0.0022437487
-0.0028605636
-0.0032810507
-0.0035299251
-0.0036302191
-0.0036032822
-0.0034687809
-0.0032446992
-0.0029473381
-0.0025913159
-0.0021895681
-0.0017533474
-0.0012922236
-0.0008140839
-0.0003251325
0.0001701091
0.0006688022
0.0011697908
0.0016736019
0.0021824426
0.0026998558
0.0032303701
0.0037801859
0.0043572815
0.0049672984
0.0055932886
0.0062298867
0.0068749993
0.0075268097
0.0081837780
0.0088446411
0.0095084128
0.0101743834
0.0108421204
0.0115114678
0.0121825465
0.0128557541
0.0135317650
0.0142115307
0.0148962790
0.0155875149
0.0162870200
0.0169968527
0.0177193482
0.0184571173
0.0192127577
0.0199884923
0.0207867314
0.0216101623
0.0224617493
0.0233447330
0.0242626313
0.0252192386
0.0262200203
0.0272866441
0.0284521144
0.0297550339
0.0312395998
0.0329556045
0.0349584347
0.0373090722
0.0400740936
0.0433256701
0.0471415679
0.0516051477
0.0568053652
0.0628367709
0.0697995100
0.0777993224
0.0869477752
0.0973987444
0.1091443830
0.1220643194
0.1360168054
0.1508388535
0.1663462567
0.1823335880
0.1985742007
0.2148202283
0.2308025845
0.2462309633
0.2607938388
0.2741584653
0.2859708774
0.2958558900
0.3034170979
0.3082367818
0.3100163294
0.3088807726
0.3050453895
0.2987372170
0.2901950513
0.2796694475
0.2674227196
0.2537289409
0.2388739980
0.2231556902
0.2068836030
0.1903790806
0.1739752267
0.1580169035
0.1428607327
0.1288669027
0.1160140698
0.1043196992
0.0939176654
0.0848786530
0.0772101561
0.0708564789
0.0656987351
0.0615548484
0.0581795523
0.0552643898
0.0524377140
0.0492646876
0.0452472833
0.0398448057
0.0324327529
0.0211149185
0.0047506808
-0.0164977592
-0.0411660944
-0.0664870474
-0.0883901019
-0.1015083459
-0.1014905953
-0.0804666652
-0.0304541505
0.0527563302
0.1696011343
0.3167435960
0.4870740257
0.6697097101
0.8500284363
1.0020843352
1.1004754123
1.1300938226
1.0861804014
0.9743246642
0.8104647841
0.6184550365
0.4217334464
0.2393071591
0.0847972066
-0.0335614927
-0.1129200699
-0.1557432958
-0.1652301483
-0.1494205709
-0.1180393906
-0.0791076931
-0.0389428228
-0.0021583824
0.0283357664
0.0513335037
0.0673324507
0.0784823809
0.0863777479
0.0918099160
0.0954818771
0.0980088002
0.0999180315
0.1016490944
0.1035536893
0.1058956938
0.1088511627
0.1125083281
0.1168675988
0.1218415613
0.1272549789
0.1329371897
0.1391404231
0.1459567429
0.1534303847
0.1615961825
0.1704795692
0.1800965764
0.1904538342
0.2015485720
0.2133686175
0.2258923974
0.2390889372
0.2529178612
0.2673293923
0.2823406732
0.2979630430
0.3140076185
0.3302888763
0.3466293770
0.3628597653
0.3788187702
0.3943532045
0.4093179652
0.4235760334
0.4369984742
0.4494639568
0.4608570475
0.4710697739
0.4800022477
0.4875626645
0.4936673042
0.4982405306
0.5012147918
0.5025306198
0.5021366306
0.4999895245
0.4960538685
0.4901996556
0.4824787293
0.4730971596
0.4622527531
0.4501350531
0.4369253394
0.4227966286
0.4079136739
0.3924329651
0.3765027285
0.3602629272
0.3438452610
0.3273731662
0.3109620800
0.2947205360
0.2787492383
0.2631406136
0.2479788174
0.2333397416
0.2192910149
0.2058920026
0.1931938065
0.1812392654
0.1700629543
0.1596911850
0.1501420060
0.1414252025
0.1335442003
0.1264762876
0.1201677639
0.1145657053
0.1096192156
0.1052794258
0.1014994942
0.0982346069
0.0954419772
0.0930808457
0.0911124807
0.0895000100
0.0882076133
0.0872011462
0.0864484912
0.0859195582
0.0855862847
0.0854226354
0.0854046026
0.0855102058
0.0857194923
0.0860145365
0.0863794403
0.0868003330
0.0872653716
0.0877647400
0.0882906501
0.0888368641
0.0893931536
0.0899544495
0.0905178038
0.0910803891
0.0916394981
0.0921925442
0.0927370609
0.0932707024
0.0937914675
0.0942989527
0.0947934690
0.0952753912
0.0957451666
0.0962033619
0.0966506637
0.0970878794
0.0975159367
0.0979358835
0.0983488884
0.0987562403
0.0991593485
0.0995597427
0.0999590729
0.1003591098
0.1007617442
0.1011689874
0.1015869509
0.1020421943
0.1025245568
0.1030202972
0.1035205180
0.1040211652
0.1045230285
0.1050314867
0.1055548590
0.1061054462
0.1067003883
0.1073616693
0.1081161167
0.1089954016
0.1100360387
0.1112793867
0.1127716474
0.1145638668
0.1167119342
0.1192758645
0.1222211281
0.1256650584
0.1298205396
0.1348638859
0.1409348413
0.1481365797
0.1565357045
0.1661622493
0.1770096775
0.1890348819
0.2021581857
0.2162633416
0.2311977799
0.2467744730
0.2627708941
0.2789280353
0.2949747348
0.3106592936
0.3254573751
0.3388704375
0.3504744322
0.3599198034
0.3669314881
0.3713089164
0.3729260114
0.3717311888
0.3677473575
0.3610719194
0.3518767692
0.3404082945
0.3269873759
0.3120093869
0.2959441939
0.2792375744
0.2621969928
0.2451921987
0.2285496313
0.2125494927
0.1974236522
0.1833566633
0.1704870663
0.1589074034
0.1486642187
0.1397580584
0.1321434705
0.1257290047
0.1203772128
0.1159046486
0.1121181971
0.1088096075
0.1055127909
0.1016094527
0.0963378584
0.0887928339
0.0779257654
0.0625396045
0.0417467185
0.0170811937
-0.0085366105
-0.0312333382
-0.0461826373
-0.0476051593
-0.0287683393
0.0168888710
0.0934588636
0.2049865222
0.3499660427
0.5209385814
0.7044922446
0.8812620877
1.0264178228
1.1168560756
1.1373089837
1.0840962457
0.9656535029
0.7988629962
0.6060329128
0.4084303327
0.2238173398
0.0664705062
-0.0567849239
-0.1447207634
-0.1981044450
-0.2196611029
-0.2140735738
-0.1879823962
-0.1499858105
-0.1092033424
-0.0702478189
-0.0359402888
-0.0080571809
0.0126784196
0.0265967711
0.0350814759
0.0405446417
0.0446145748
0.0476482343
0.0501119721
0.0523811608
0.0547401933
0.0573824831
0.0604104645
0.0638355919
0.0675927475
0.0717348920
0.0763281971
0.0814149146
0.0870333708
0.0932179660
0.0999991746
0.1074035454
0.1154537013
0.1241684348
0.1335640656
0.1436541179
0.1544480801
0.1659785404
0.1784286144
0.1917313161
0.2057650160
0.2204094779
0.2355458589
0.2510567096
0.2668259735
0.2827389878
0.2986824829
0.3145445824
0.3302148033
0.3455840560
0.3605446441
0.3749902645
0.3888160075
0.4019183567
0.4141951889
0.4255457744
0.4358707766
0.4450722525
0.4530536465
0.4597196967
0.4649764481
0.4687313359
0.4708931891
0.4713722297
0.4700800730
0.4669245953
0.4618658341
0.4550452159
0.4466219783
0.4367511144
0.4255833724
0.4132652563
0.3999390253
0.3857426938
0.3708100321
0.3552705654
0.3392495747
0.3228680961
0.3062429213
0.2894865974
0.2727074267
0.2560094671
0.2394925319
0.2232521374
0.2073784364
0.1919562640
0.1770662611
0.1627853042
0.1491861774
0.1363374202
0.1243033276
0.1131401876
0.1028428975
0.0933688115
0.0846764021
0.0767248101
0.0694738450
0.0628839847
0.0569163758
0.0515328334
0.0466958413
0.0423685516
0.0385147852
0.0350990313
0.0320864479
0.0294428615
0.0271347670
0.0251293281
0.0233944555
0.0219007594
0.0206216817
0.0195314381
0.0186049129
0.0178176588
0.0171458972
0.0165665179
0.0160570795
0.0155983063
0.0151916454
0.0148358874
0.0145280085
0.0142653203
0.0140454690
0.0138664362
0.0137265383
0.0136244266
0.0135590877
0.0135298430
0.0135363490
0.0135785972
0.0136569140
0.0137719609
0.0139247346
0.0141164858
0.0143462402
0.0146103298
0.0149052166
0.0152274404
0.0155737460
0.0159412118
0.0163272516
0.0167296140
0.0171463826
0.0175759762
0.0180265677
0.0184995540
0.0189821428
0.0194630716
0.0199326215
0.0203826178
0.0208064295
0.0211989695
0.0215566946
0.0218776056
0.0221612470
0.0224087072
0.0226226187
0.0228071577
0.0229681028
0.0231151061
0.0232624252
0.0234260694
0.0236235920
0.0238740904
0.0241982055
0.0246181223
0.0251575697
0.0258411931
0.0266554561
0.0276810377
0.0290470850
0.0308728964
0.0332679211
0.0363317596
0.0401541638
0.0448150363
0.0503844312
0.0569225534
0.0644797593
0.0730965561
0.0828036024
0.0936217078
0.1055618331
0.1186250673
0.1328724508
0.1481908246
0.1641533393
0.1803517952
0.1964030630
0.2119490416
0.2266566576
0.2402178643
0.2523496427
0.2627940008
0.2713179740
0.2777136249
0.2817980434
0.2834133465
0.2824266788
0.2787302117
0.2722171734
0.2629134198
0.2512841332
0.2378050725
0.2229176866
0.2070291138
0.1905121825
0.1737054106
0.1569130099
0.1404051615
0.1244181906
0.1091541538
0.0947807975
0.0814315578
0.0692055605
0.0581676213
0.0483482454
0.0397436280
0.0323156539
0.0260535343
0.0221085725
0.0198576886
0.0180148424
0.0155048129
0.0114631989
0.0052364186
-0.0036182903
-0.0153328704
-0.0299284448
-0.0472153171
-0.0667929713
-0.0880500718
-0.1101644637
-0.1321031812
-0.1524720042
-0.1643524511
-0.1574751982
-0.1243478553
-0.0604329714
0.0358518759
0.1631340756
0.3170859823
0.4904249172
0.6729114164
0.8472275793
0.9861215418
1.0688282339
1.0838194412
1.0288038049
0.9107268215
0.7457708434
0.5551738830
0.3568566321
0.1675841914
0.0000249068
-0.1372812781
-0.2399228224
-0.3076165880
-0.3428267964
-0.3484370605
-0.3326706432
-0.3030680900
-0.2660020095
-0.2266770734
-0.1891300169
-0.1562296380
-0.1296767982
-0.1100044219
-0.0962526836
-0.0867302855
-0.0804140686
-0.0764075230
-0.0739331388
-0.0723324066
-0.0710658174
-0.0697128624
-0.0679720331
-0.0656608215
-0.0627157197
-0.0591922203
-0.0552648162
-0.0511466725
-0.0466033912
-0.0415321395
-0.0358879884
-0.0296372499
-0.0227521847
-0.0152103004
-0.0069944736
0.0019072847
0.0115018590
0.0217910285
0.0327714675
0.0444347455
0.0567673269
0.0697505711
0.0833607326
0.0975901271
0.1124782959
0.1279202390
0.1437937734
0.1599779441
0.1763530233
0.1928005110
0.2092031349
0.2254448501
0.2414108393
0.2569875131
0.2720625152
0.2865271529
0.3002801286
0.3132223340
0.3252558882
0.3362841380
0.3462116580
0.3549442501
0.3623889440
0.3684539968
0.3730488934
0.3760843463
0.3774722954
0.3771235223
0.3750347578
0.3712845717
0.3659556437
0.3591334262
0.3509061449
0.3413647983
0.3306031584
0.3187177699
0.3058079507
0.2919757919
0.2773261574
0.2619666829
0.2460062979
0.2295525015
0.2127148239
0.1956056776
0.1783405723
0.1610378507
0.1438186284
0.1268067944
0.1101290105
0.0939147116
0.0782960294
0.0633427479
0.0490572467
0.0354592673
0.0225645388
0.0103847786
-0.0010723082
-0.0118030282
-0.0218077002
-0.0310906550
-0.0396602353
-0.0475287959
-0.0547127035
-0.0612323369
-0.0671120867
-0.0723796604
-0.0770645556
-0.0811998388
-0.0848225888
-0.0879738961
-0.0906988633
-0.0930466050
-0.0950702479
-0.0968203560
-0.0983018943
-0.0995323447
-0.1005337175
-0.1013268391
-0.1019313519
-0.1023657144
-0.1026472012
-0.1027919028
-0.1028147258
-0.1027293928
-0.1025484424
-0.1022832295
-0.1019439247
-0.1015395149
-0.1010778027
-0.1005654072
-0.1000084145
-0.0994140725
-0.0987889729
-0.0981385624
-0.0974672931
-0.0967784904
-0.0960742957
-0.0953556663
-0.0946223757
-0.0938721106
-0.0930977788
-0.0923053219
-0.0915029849
-0.0906985144
-0.0898991579
-0.0891116644
-0.0883422843
-0.0875967692
-0.0868803718
-0.0861978464
-0.0855534485
-0.0849509347
-0.0843935633
-0.0838840934
-0.0834247859
-0.0830165305
-0.0826561767
-0.0823391769
-0.0820604843
-0.0818145539
-0.0815953417
-0.0813963049
-0.0812104023
-0.0810300937
-0.0808473405
-0.0806536051
-0.0804398515
-0.0801965446
-0.0799136510
-0.0795806383
-0.0791864756
-0.0787196333
-0.0781680828
-0.0775192971
-0.0767602504
-0.0758774182
-0.0748585755
-0.0737427881
-0.0724570984
-0.0708796259
-0.0688980125
-0.0664122802
-0.0633322212
-0.0595763464
-0.0550718493
-0.0497546275
-0.0435693021
-0.0364692180
-0.0284164435
-0.0193817711
-0.0093447165
0.0017064804
0.0137748564
0.0268547244
0.0409316736
0.0559859188
0.0721421848
0.0891205266
0.1064522655
0.1237052132
0.1404836712
0.1564284313
0.1712167752
0.1845624747
0.1962157916
0.2059639847
0.2136334214
0.2190878031
0.2222273218
0.2229886594
0.2213449880
0.2173059696
0.2109177565
0.2022629909
0.1914606005
0.1786876416
0.1643310317
0.1488133486
0.1325227083
0.1158127652
0.0990027119
0.0823772792
0.0661867361
0.0506468901
0.0359390868
0.0222102099
0.0095726816
-0.0018955378
-0.0121509495
-0.0211845168
-0.0290219193
-0.0357247872
-0.0413897519
-0.0461479105
-0.0501339779
-0.0531931051
-0.0557686731
-0.0584856955
-0.0619518240
-0.0667573481
-0.0734751953
-0.0826609313
-0.0948527596
-0.1105715217
-0.1303206971
-0.1545798623
-0.1813723003
-0.2054562695
-0.2216816729
-0.2252014527
-0.2114715902
-0.1762511057
-0.1156020588
-0.0258895482
0.0961049095
0.2483960744
0.4214709209
0.6031186977
0.7787494612
0.9313940746
1.0417042078
1.0895433240
1.0677188630
0.9791622550
0.8340573474
0.6501159127
0.4517784561
0.2586245878
0.0848542801
-0.0594028588
-0.1687703697
-0.2419633891
-0.2797519700
-0.2888709608
-0.2763171424
-0.2485693658
-0.2115885519
-0.1708176923
-0.1311818484
-0.0970881521
-0.0714432256
-0.0529727290
-0.0400232041
-0.0311691202
-0.0251930516
-0.0210856547
-0.0180458279
-0.0154807212
-0.0130057359
-0.0104090666
-0.0075955158
-0.0045154913
-0.0011217751
0.0026304805
0.0067837532
0.0113781506
0.0164514101
0.0220388991
0.0281736147
0.0348861841
0.0422048642
0.0501555418
0.0587617339
0.0680445869
0.0780228774
0.0888473834
0.1006720959
0.1133893467
0.1268895757
0.1410643467
0.1558063469
0.1710093877
0.1865684039
0.2023794542
0.2183397208
0.2343475101
0.2503022517
0.2661044994
0.2816559305
0.2968593461
0.3116186710
0.3258389539
0.3394263669
0.3522882062
0.3643328917
0.3754699667
0.3856100987
0.3946650786
0.4025478213
0.4091723651
0.4144539103
0.4183091513
0.4206561170
0.4214139602
0.4205027696
0.4178434224
0.4133448276
0.4069278210
0.3987565272
0.3890226768
0.3779103742
0.3655960976
0.3522486987
0.3380294030
0.3230918096
0.3075818914
0.2916379949
0.2753908402
0.2589635214
0.2424715058
0.2260226349
0.2097171235
0.1936475603
0.1778989076
0.1625485013
0.1476660435
0.1333135215
0.1195452412
0.1064078809
0.0939404927
0.0821745026
0.0711337099
0.0608342879
0.0512847835
0.0424861171
0.0344315831
0.0271068494
0.0204899576
0.0145653682
0.0093136339
0.0046873900
0.0006407076
-0.0028705187
-0.0058885713
-0.0084539090
-0.0106051674
-0.0123791588
-0.0138108721
-0.0149334730
-0.0157783037
-0.0163749135
-0.0167514233
-0.0169344088
-0.0169486278
-0.0168168690
-0.0165596856
-0.0161957351
-0.0157418517
-0.0152130461
-0.0146225061
-0.0139815957
-0.0132998560
-0.0125850044
-0.0118429354
-0.0110777197
-0.0102916051
-0.0094850158
-0.0086594687
-0.0078253083
-0.0069856535
-0.0061426111
-0.0052981544
-0.0044541232
-0.0036122238
-0.0027740289
-0.0019409484
-0.0011138073
-0.0002929445
0.0005214442
0.0013292961
0.0021306823
0.0029258072
0.0037150089
0.0044987588
0.0052776619
0.0060524567
0.0068240151
0.0075933425
0.0083615779
0.0091299937
0.0098999958
0.0106731237
0.0114510502
0.0122355818
0.0130286584
0.0138323532
0.0146488733
0.0154805590
0.0163298841
0.0171994560
0.0180919986
0.0190100649
0.0199560769
0.0209290545
0.0219387413
0.0230089822
0.0241681257
0.0254491011
0.0268894181
0.0285311675
0.0304210206
0.0326102295
0.0351546269
0.0381146266
0.0415552226
0.0455459901
0.0501610846
0.0554792428
0.0615837816
0.0685625992
0.0765081739
0.0855175653
0.0956924134
0.1072814046
0.1203585678
0.1346554193
0.1499051594
0.1658444411
0.1822132850
0.1987550756
0.2152165614
0.2313478549
0.2469024324
0.2616371343
0.2753121650
0.2876910926
0.2985408494
0.3076317315
0.3147373991
0.3196348763
0.3221045511
0.3219301755
0.3188988654
0.3128656629
0.3041370871
0.2931849745
0.2804509816
0.2663460779
0.2512505455
0.2355139794
0.2194552993
0.2033630526
0.1874954359
0.1720799753
0.1573135258
0.1433623806
0.1303622031
0.1184179703
0.1076039715
0.0979638091
0.0895103982
0.0822259667
0.0760583008
0.0708254268
0.0664632051
0.0628823998
0.0598704398
0.0570914186
0.0540860947
0.0502718911
0.0449428959
0.0372698618
0.0263002062
0.0109580115
-0.0096130341
-0.0339411344
-0.0591135341
-0.0815449623
-0.0969779314
-0.1004826853
-0.0864571991
-0.0486714629
0.0168674407
0.1139350092
0.2435633365
0.4018855725
0.5801359227
0.7646496483
0.9368630664
1.0737373720
1.1559758231
1.1711684630
1.1155925241
0.9951495953
0.8253656221
0.6307253968
0.4347675825
0.2552016782
0.1046570635
-0.0095418223
-0.0853754573
-0.1248297197
-0.1315370195
-0.1150940224
-0.0842238279
-0.0462028937
-0.0068610642
0.0294183574
0.0596986079
0.0824894635
0.0980709045
0.1083933633
0.1149636363
0.1190438051
0.1216710955
0.1236578777
0.1255916661
0.1278351194
0.1305260405
0.1335773768
0.1367839359
0.1403499353
0.1443568924
0.1488494585
0.1538699001
0.1594580824
0.1656506143
0.1724804410
0.1799780212
0.1881714288
0.1970863531
0.2067532174
0.2171951749
0.2283995781
0.2403436050
0.2529951670
0.2663129094
0.2802462108
0.2947351838
0.3097106745
0.3250942624
0.3407982611
0.3567257174
0.3727704121
0.3888168593
0.4047403071
0.4204067370
0.4356728642
0.4503861374
0.4643847393
0.4774975956
0.4895450423
0.5003392535
0.5097360154
0.5176618519
0.5240403534
0.5288102115
0.5319254088
0.5333552288
0.5330842563
0.5311123772
0.5274547785
0.5221419483
0.5152196758
0.5067490514
0.4968064666
0.4854836140
0.4728874872
0.4591403813
0.4443798921
0.4287589168
0.4124456536
0.3956236018
0.3784915620
0.3612636356
0.3441555918
0.3272291771
0.3105687911
0.2942777025
0.2784491770
0.2631664769
0.2485028615
0.2345215869
0.2212759060
0.2088090684
0.1971543208
0.1863349063
0.1763640652
0.1672450344
0.1589710478
0.1515253359
0.1448811261
0.1390016428
0.1338401070
0.1293397365
0.1254337460
0.1220462667
0.1191567613
0.1167489480
0.1147812777
0.1132143361
0.1120093553
0.1111266685
0.1105283851
0.1101787613
0.1100443159
0.1100939128
0.1102985810
0.1106314948
0.1110679739
0.1115854836
0.1121636342
0.1127841818
0.1134310278
0.1140902188
0.1147499472
0.1154005503
0.1160345113
0.1166464585
0.1172331657
0.1177866602
0.1182929317
0.1187463676
0.1191415781
0.1194732838
0.1197363266
0.1199281799
0.1200521538
0.1201124591
0.1201134175
0.1200594606
0.1199551306
0.1198050801
0.1196140719
0.1193869793
0.1191287859
0.1188445858
0.1185395833
0.1182190933
0.1178885407
0.1175534611
0.1172195004
0.1168924149
0.1165780710
0.1162824458
0.1160116267
0.1157718114
0.1155693080
0.1154105348
0.1153020209
0.1152504006
0.1152741366
0.1153858188
0.1155789651
0.1158550156
0.1162234997
0.1167020191
0.1173162702
0.1181000495
0.1190952534
0.1203518781
0.1219280196
0.1238898738
0.1263117365
0.1292760033
0.1328731699
0.1372018315
0.1423686833
0.1484876989
0.1556301569
0.1638764660
0.1732978312
0.1839225795
0.1957361604
0.2086811458
0.2226572304
0.2375220233
0.2530925169
0.2691432270
0.2854057918
0.3015689720
0.3172786503
0.3321378320
0.3457066443
0.3575023511
0.3670729250
0.3742018799
0.3787674497
0.3806983720
0.3799738879
0.3766237424
0.3707281842
0.3624179655
0.3518743423
0.3393290744
0.3250644251
0.3094131615
0.2927585544
0.2755343781
0.2582249109
0.2413649346
0.2252866430
0.2100298674
0.1957980999
0.1827472273
0.1709839140
0.1605654109
0.1514997354
0.1437457397
0.1372131107
0.1317623703
0.1272048746
0.1233028151
0.1197692174
0.1162679423
0.1124136852
0.1079391866
0.1024082058
0.0933449787
0.0791729913
0.0595896264
0.0355661636
0.0093477788
-0.0155464553
-0.0343235693
-0.0409519615
-0.0318544679
0.0015078603
0.0676597978
0.1700978008
0.3072900081
0.4726762402
0.6546679998
0.8366484717
0.9969725226
1.1110087360
1.1602966389
1.1364277182
1.0418326849
0.8897872240
0.7033685717
0.5049774848
0.3143919843
0.1465626109
0.0110098080
-0.0881316555
-0.1478420342
-0.1729734429
-0.1721397071
-0.1529905085
-0.1222113846
-0.0855237506
-0.0476849653
-0.0124882657
0.0172372552
0.0396267005
0.0544763703
0.0642396475
0.0704400856
0.0742987648
0.0768066167
0.0787244242
0.0805828217
0.0826822949
0.0850931811
0.0876714375
0.0904871806
0.0936610618
0.0972356007
0.1012513646
0.1057469684
0.1107590747
0.1163223937
0.1224696832
0.1292317486
0.1366374431
0.1447138198
0.1534888122
0.1629950982
0.1732319638
0.1841852280
0.1958320553
0.2081409553
0.2210717829
0.2345757381
0.2485953663
0.2630645582
0.2779085495
0.2930439214
0.3083786003
0.3238118576
0.3392343103
0.3545279204
0.3695659953
0.3842131876
0.3983254950
0.4117502607
0.4243261729
0.4358832653
0.4462429930
0.4552826803
0.4629351792
0.4691196593
0.4737698904
0.4768345786
0.4782773446
0.4780764810
0.4762250340
0.4727309821
0.4676172397
0.4609216574
0.4526970212
0.4430110535
0.4319464124
0.4196006919
0.4060864219
0.3915310684
0.3760770331
0.3598816536
0.3431172036
0.3259708927
0.3086448662
0.2913237167
0.2740528231
0.2569397220
0.2400948075
0.2236183199
0.2076006002
0.1921218950
0.1772522458
0.1630514887
0.1495692541
0.1368449670
0.1249078472
0.1137769087
0.1034609603
0.0939586051
0.0852582412
0.0773380606
0.0701660504
0.0636999919
0.0578874612
0.0526658287
0.0479781217
0.0438244378
0.0401648434
0.0369551911
0.0341534575
0.0317197435
0.0296162741
0.0278073984
0.0262597327
0.0249429691
0.0238293125
0.0228930931
0.0221107693
0.0214610322
0.0209248112
0.0204851656
0.0201272787
0.0198384580
0.0196081352
0.0194278660
0.0192913305
0.0191943327
0.0191348009
0.0191099868
0.0191085044
0.0191284983
0.0191694978
0.0192311328
0.0193131336
0.0194153309
0.0195376556
0.0196801395
0.0198429143
0.0200259904
0.0202277989
0.0204461037
0.0206787653
0.0209237444
0.0211791023
0.0214430007
0.0217137017
0.0219895678
0.0222690619
0.0225507474
0.0228332881
0.0231154481
0.0233960921
0.0236741851
0.0239487926
0.0242190805
0.0244843150
0.0247438628
0.0249971913
0.0252438678
0.0254835604
0.0257160374
0.0259462080
0.0261904195
0.0264423486
0.0267006654
0.0269712168
0.0272662060
0.0276041840
0.0280099983
0.0285147594
0.0291559184
0.0299772762
0.0310289824
0.0323675357
0.0340557842
0.0361629248
0.0387645039
0.0419424166
0.0457849075
0.0503865700
0.0558483468
0.0622775298
0.0697877597
0.0785374802
0.0889774664
0.1009750498
0.1142424059
0.1284979231
0.1434660901
0.1588765022
0.1744643374
0.1899709785
0.2051440212
0.2197372736
0.2335107565
0.2462307031
0.2576695594
0.2676059839
0.2758248476
0.2821172341
0.2862804397
0.2881179730
0.2874395556
0.2840611213
0.2778048166
0.2686358087
0.2570443002
0.2435362596
0.2285765258
0.2125927467
0.1959753794
0.1790776900
0.1622157538
0.1456684579
0.1296775311
0.1144475320
0.1001458284
0.0869025975
0.0748108720
0.0639266131
0.0542686099
0.0458184609
0.0385205734
0.0323073185
0.0270838960
0.0226545359
0.0187392663
0.0149740083
0.0109105761
0.0060166772
-0.0003240880
-0.0088122259
-0.0202323499
-0.0354531801
-0.0554275436
-0.0806822566
-0.1078936095
-0.1319355315
-0.1476405333
-0.1498068496
-0.1331988573
-0.0925480612
-0.0225531146
0.0821255703
0.2202084513
0.3832544037
0.5598496008
0.7356580850
0.8934217684
1.0129604324
1.0711717278
1.0496319607
0.9585842198
0.8156599565
0.6383910259
0.4442096874
0.2504486046
0.0743408453
-0.0683255630
-0.1738396545
-0.2441051688
-0.2819891944
-0.2914620368
-0.2775973393
-0.2465738298
-0.2056749187
-0.1632872728
-0.1264453545
-0.0960887838
-0.0722457690
-0.0545958958
-0.0424685639
-0.0348429865
-0.0303481909
-0.0272736553
-0.0245885685
-0.0221758862
-0.0198413049
-0.0174209162
-0.0147812061
-0.0118190553
-0.0084617392
-0.0046669276
-0.0004226852
0.0042551089
0.0093860954
0.0150309236
0.0212422221
0.0280641447
0.0355329095
0.0436767258
0.0525153131
0.0620598839
0.0723131443
0.0832692936
0.0949140243
0.1072245225
0.1201694672
0.1337090312
0.1477948802
0.1623701734
0.1773695633
0.1927206547
0.2084368513
0.2244120047
0.2404580078
0.2563961475
0.2720571045
0.2872809533
0.3019171623
0.3158245938
0.3288715038
0.3409355423
0.3519038058
0.3616739285
0.3701540456
0.3772617316
0.3829239545
0.3870771286
0.3896674200
0.3906505393
0.3899915914
0.3876650750
0.3836548828
0.3779493527
0.3704026154
0.3610972086
0.3502319993
0.3379979132
0.3245779353
0.3101471093
0.2948725381
0.2789133831
0.2624208652
0.2455382637
0.2284009171
0.2111362229
0.1938636374
0.1766946259
0.1597314012
0.1430668255
0.1267857504
0.1109650865
0.0956738034
0.0809729296
0.0669155524
0.0535468183
0.0409039325
0.0290161593
0.0179048218
0.0075833021
-0.0019429588
-0.0106764608
-0.0186276451
-0.0258072289
-0.0322330251
-0.0379548644
-0.0430220805
-0.0474821352
-0.0513806187
-0.0547612498
-0.0576658753
-0.0601344707
-0.0622051411
-0.0639141721
-0.0652960393
-0.0663833502
-0.0672068410
-0.0677954109
-0.0681765057
-0.0683759752
-0.0684178025
-0.0683240987
-0.0681151036
-0.0678091852
-0.0674228398
-0.0669706922
-0.0664654954
-0.0659181308
-0.0653376083
-0.0647310659
-0.0641037701
-0.0634591158
-0.0627986261
-0.0621276678
-0.0614548895
-0.0607841974
-0.0601193198
-0.0594637940
-0.0588201866
-0.0581898347
-0.0575738301
-0.0569730933
-0.0563883727
-0.0558202450
-0.0552691149
-0.0547352155
-0.0542186079
-0.0537191816
-0.0532366540
-0.0527705709
-0.0523203063
-0.0518850621
-0.0514638687
-0.0510555846
-0.0506588962
-0.0502723186
-0.0498941946
-0.0495226954
-0.0491558204
-0.0487913971
-0.0484270812
-0.0480603567
-0.0476885399
-0.0473090060
-0.0469192978
-0.0465168138
-0.0460987803
-0.0456622385
-0.0452037354
-0.0447499054
-0.0443441027
-0.0439182549
-0.0434000261
-0.0427182393
-0.0418028764
-0.0405850778
-0.0389971430
-0.0369725302
-0.0344458564
-0.0313528973
-0.0276305875
-0.0232170205
-0.0180514483
-0.0120742819
-0.0052270911
0.0025473955
0.0113052906
0.0211015444
0.0319896858
0.0440216548
0.0572481927
0.0717107759
0.0871998615
0.1033441927
0.1197851854
0.1361784543
0.1521938127
0.1675152730
0.1818410459
0.1948835413
0.2063693676
0.2160393320
0.2236484407
0.2289658983
0.2317751084
0.2318736734
0.2290722799
0.2234196829
0.2152594016
0.2049402070
0.1928013183
0.1791724036
0.1643735819
0.1487156665
0.1325003685
0.1160198956
0.0995569040
0.0833844958
0.0677660743
0.0529552612
0.0391961066
0.0266740635
0.0151047884
0.0046258151
-0.0045568353
-0.0123322364
-0.0186845572
-0.0236930613
-0.0275321077
-0.0304711501
-0.0328747374
-0.0352025136
-0.0380092173
-0.0419446827
-0.0477538386
-0.0562767089
-0.0684484126
-0.0904028594
-0.1275440106
-0.1693745333
-0.2065051305
-0.2311719475
-0.2372365721
-0.2201860347
-0.1771328080
-0.1068148071
-0.0095953896
0.1125366445
0.2559670526
0.4154561498
0.5841388089
0.7535244599
0.9107035062
1.0254002686
1.0754829261
1.0512389338
0.9545779068
0.7990073369
0.6087434319
0.4111987036
0.2279837122
0.0739716513
-0.0418828929
-0.1112611922
-0.1419252089
-0.1441768039
-0.1269966655
-0.0980443087
-0.0636580405
-0.0288549083
0.0026692262
0.0285396744
0.0477029204
0.0604266214
0.0683091136
0.0738845240
0.0780881717
0.0813063969
0.0838860573
0.0861345281
0.0883197017
0.0906699879
0.0933743141
0.0965821249
0.1004033822
0.1049085657
0.1101286720
0.1160552148
0.1226399594
0.1297953434
0.1375621548
0.1460556526
0.1553131718
0.1653578258
0.1761985073
0.1878298875
0.2002324168
0.2133723243
0.2272016179
0.2416580847
0.2566652904
0.2721325797
0.2879550760
0.3040136819
0.3201750786
0.3362917263
0.3522348942
0.3679396553
0.3831778398
0.3977226530
0.4113678465
0.4239277185
0.4352371141
0.4451519059
0.4535498930
0.4603296671
0.4654103665
0.4687316758
0.4702537935
0.4699573352
0.4678434307
0.4639337564
0.4582705352
0.4509165365
0.4419550761
0.4314900164
0.4195687672
0.4063006657
0.3919140207
0.3766250281
0.3606375805
0.3441432679
0.3273213771
0.3103388920
0.2933504938
0.2764985604
0.2599131670
0.2437120856
0.2280001878
0.2128681130
0.1983938092
0.1846429212
0.1716687913
0.1595124584
0.1482026587
0.1377558255
0.1281760889
0.1194609711
0.1116388759
0.1046653436
0.0984788928
0.0930202626
0.0882324126
0.0840605230
0.0804519942
0.0773564474
0.0747257240
0.0725138861
0.0706772162
0.0691742173
0.0679656128
0.0670143468
0.0662855836
0.0657472975
0.0653718263
0.0651342155
0.0650117309
0.0649838591
0.0650323462
0.0651414152
0.0652976126
0.0654897053
0.0657086809
0.0659477474
0.0662023333
0.0664700877
0.0667508801
0.0670468003
0.0673621589
0.0677034868
0.0680781634
0.0684840294
0.0689167377
0.0693728142
0.0698493120
0.0703438115
0.0708544199
0.0713797721
0.0719185207
0.0724677570
0.0730245641
0.0735865521
0.0741518588
0.0747191486
0.0752876136
0.0758569728
0.0764274725
0.0769998863
0.0775755148
0.0781561859
0.0787442548
0.0793426039
0.0799546425
0.0805843074
0.0812360626
0.0819148992
0.0826263355
0.0833764170
0.0841717165
0.0850193340
0.0859268965
0.0869025584
0.0879547428
0.0889978825
0.0900761452
0.0913519577
0.0929745959
0.0950801850
0.0977916797
0.1012186612
0.1054574200
0.1105910934
0.1166896681
0.1238099797
0.1319957134
0.1412774033
0.1516724328
0.1631850343
0.1758062898
0.1895141301
0.2042733354
0.2200546464
0.2367337553
0.2537424683
0.2705093235
0.2865203629
0.3013191326
0.3145066825
0.3257415526
0.3347397146
0.3412746207
0.3451772270
0.3463359934
0.3446968839
0.3402633664
0.3330964126
0.3233078154
0.3111245605
0.2970854419
0.2817306567
0.2655505499
0.2489856149
0.2324264931
0.2162139740
0.2006389955
0.1859426433
0.1723161516
0.1599009025
0.1487884265
0.1390204020
0.1305886557
0.1234221498
0.1172815712
0.1122030621
0.1081577503
0.1049274204
0.1021045811
0.0990924662
0.0951050393
0.0891671098
0.0801143292
0.0666503164
0.0481126277
0.0250879902
-0.0002265671
-0.0239720384
-0.0406274403
-0.0430846941
-0.0249434125
0.0220057047
0.1034727633
0.2206523320
0.3702234422
0.5443495882
0.7297914804
0.9002158950
1.0285394066
1.0944155135
1.0842566788
0.9931939524
0.8400658266
0.6527447530
0.4565171658
0.2739996347
0.1239097185
0.0134677737
-0.0566572526
-0.0888351232
-0.0884790373
-0.0640456306
-0.0266676224
0.0144283118
0.0529616989
0.0848130161
0.1081108062
0.1232316778
0.1327153080
0.1388042752
0.1426517799
0.1452854218
0.1474753164
0.1497340947
0.1523169034
0.1552215098
0.1584072863
0.1620093024
0.1660795984
0.1706683945
0.1758241386
0.1815934435
0.1880210558
0.1951499432
0.2030167401
0.2116428890
0.2210598105
0.2312863546
0.2423263102
0.2541684054
0.2667863070
0.2801386209
0.2941688921
0.3088056042
0.3239621801
0.3395369815
0.3554133091
0.3714594027
0.3875284407
0.4034585408
0.4190727346
0.4341787754
0.4485692444
0.4620280350
0.4744391088
0.4856417565
0.4954610401
0.5037469220
0.5103742654
0.5152428343
0.5182772931
0.5194272070
0.5186670417
0.5159961638
0.5114388402
0.5050442387
0.4968864277
0.4870643763
0.4757019540
0.4629479313
0.4489759791
0.4339846690
0.4181974733
0.4018627649
0.3851481220
0.3681607962
0.3510877071
0.3340997878
0.3173520706
0.3009836902
0.2851178840
0.2698620487
0.2553078167
0.2415309419
0.2285912804
0.2165327906
0.2053835333
0.1951556716
0.1858454710
0.1774332991
0.1698836261
0.1631450245
0.1571501689
0.1518433078
0.1472207802
0.1432254224
0.1397992488
0.1368871845
0.1344370645
0.1323996345
0.1307285906
0.1293810024
0.1283171450
0.1275002083
0.1268962927
0.1264744088
0.1262064777
0.1260673305
0.1260347089
0.1260892646
0.1262145599
0.1263970672
0.1266261694
0.1268941594
0.1271962406
0.1275305267
0.1278958519
0.1282785355
0.1286745132
0.1290824619
0.1295011776
0.1299295759
0.1303666914
0.1308116782
0.1312638098
0.1317224552
0.1321867912
0.1326558926
0.1331289489
0.1336052689
0.1340842807
0.1345654555
0.1350480975
0.1355315626
0.1360153259
0.1364989821
0.1369822450
0.1374649477
0.1379470428
0.1384286019
0.1389098162
0.1393992936
0.1399091159
0.1404248437
0.1409371545
0.1414432827
0.1419470198
0.1424587137
0.1429952694
0.1435801488
0.1442434207
0.1450224919
0.1459619412
0.1471129210
0.1485331407
0.1502868664
0.1524347477
0.1549287144
0.1579614224
0.1617728296
0.1665604401
0.1724793037
0.1796420162
0.1881187192
0.1979371003
0.2090823929
0.2214973764
0.2350823761
0.2496952630
0.2651514544
0.2812239131
0.2976431481
0.3141609382
0.3303456448
0.3455412703
0.3591803059
0.3707867270
0.3799762436
0.3864579986
0.3900346278
0.3906022593
0.3881505670
0.3827630449
0.3746168050
0.3639824517
0.3512240826
0.3367488495
0.3209773846
0.3044514917
0.2876582838
0.2710225021
0.2549065160
0.2396103234
0.2253715502
0.2123654506
0.2007049069
0.1904404299
0.1815601583
0.1739898593
0.1675929282
0.1621676388
0.1575661919
0.1536334918
0.1499870379
0.1460080562
0.1408414994
0.1333960469
0.1223441046
0.1062635640
0.0848785085
0.0596057580
0.0336324511
0.0119322849
0.0012655146
0.0095425890
0.0437965191
0.1124326862
0.2188793177
0.3608325570
0.5302564633
0.7137086726
0.8887798554
1.0215488972
1.0881864502
1.0776560499
0.9917140282
0.8449073088
0.6614856472
0.4632769024
0.2718405723
0.1033437016
-0.0318111602
-0.1289860263
-0.1878956013
-0.2100102382
-0.2048421993
-0.1813989481
-0.1473403735
-0.1089787904
-0.0712789392
-0.0378579863
-0.0109855236
0.0084164312
0.0213191739
0.0298821571
0.0353581357
0.0388058588
0.0411015318
0.0429388166
0.0448288316
0.0471001821
0.0498999261
0.0531937716
0.0567649537
0.0605548237
0.0647847741
0.0695047495
0.0747601706
0.0805919538
0.0870365109
0.0941257490
0.1018870712
0.1103433758
0.1195130567
0.1294100034
0.1400436010
0.1514387066
0.1637554655
0.1769288544
0.1908355752
0.2053529826
0.2203590847
0.2357325426
0.2513526707
0.2670994363
0.2828534648
0.2984962320
0.3139101293
0.3289782191
0.3435842175
0.3576124933
0.3709480561
0.3834763115
0.3950830803
0.4056548271
0.4150786698
0.4232423794
0.4300343802
0.4353437494
0.4390602176
0.4410741683
0.4412766382
0.4395498896
0.4358002964
0.4301641234
0.4228074296
0.4138921322
0.4035760063
0.3920126852
0.3793516601
0.3657382663
0.3513129488
0.3362109026
0.3205630913
0.3044963368
0.2881333188
0.2715925751
0.2549885015
0.2384313519
0.2220272384
0.2058781308
0.1900818571
0.1747321036
0.1599184142
0.1457261911
0.1322366945
0.1195270426
0.1076702118
0.0967314996
0.0867091675
0.0775515141
0.0692074482
0.0616272500
0.0547625705
0.0485664321
0.0429932312
0.0379989587
0.0335413436
0.0295795207
0.0260739956
0.0229866454
0.0202807276
0.0179213408
0.0158756247
0.0141121414
0.0126008244
0.0113129778
0.0102212774
0.0092997696
0.0085238722
0.0078703740
0.0073174350
0.0068445861
0.0064327296
0.0060641387
0.0057224577
0.0053927022
0.0050627710
0.0047337545
0.0044045774
0.0040729021
0.0037374290
0.0033986426
0.0030573495
0.0027145038
0.0023712062
0.0020287048
0.0016883945
0.0013518174
0.0010206624
0.0006967657
0.0003821104
0.0000788266
-0.0002108085
-0.0004843707
-0.0007392887
-0.0009728442
-0.0011821719
-0.0013642595
-0.0015159475
-0.0016339296
-0.0017147523
-0.0017548150
-0.0017503703
-0.0016975236
-0.0015922427
-0.0014212055
-0.0011811141
-0.0008855469
-0.0005441870
-0.0001627639
0.0002569443
0.0007166867
0.0012212165
0.0017791125
0.0024029066
0.0031090846
0.0039180858
0.0048543028
0.0059460820
0.0072257234
0.0087294802
0.0104975595
0.0125574887
0.0148273327
0.0174691468
0.0206837660
0.0246432748
0.0294910074
0.0353415476
0.0422807320
0.0503664524
0.0596296963
0.0700729586
0.0816699839
0.0943657662
0.1080765494
0.1226898266
0.1380643410
0.1540300850
0.1703883009
0.1869326641
0.2032885975
0.2189214566
0.2333552014
0.2461770102
0.2570372790
0.2656496219
0.2717908710
0.2753010765
0.2760835064
0.2741046469
0.2693942020
0.2620450938
0.2521960029
0.2400656162
0.2261229250
0.2108305720
0.1946154858
0.1778688052
0.1609458792
0.1441662668
0.1278139235
0.1121376830
0.0973507388
0.0836304942
0.0711185628
0.0599641185
0.0510675688
0.0441975369
0.0386616252
0.0338373078
0.0291719306
0.0241827115
0.0184567398
0.0116509767
0.0034922554
-0.0062227195
-0.0176273714
-0.0307852519
-0.0456900419
-0.0622662603
-0.0803706036
-0.0997902634
-0.1202425596
-0.1408464530
-0.1535831792
-0.1487060584
-0.1190796526
-0.0599042484
0.0312841428
0.1546137849
0.3078772169
0.4870052759
0.6742152858
0.8408623022
0.9644038752
1.0289203704
1.0251149681
0.9504594867
0.8152497429
0.6406491647
0.4465728705
0.2508156017
0.0690517224
-0.0854203309
-0.2061227318
-0.2925039367
-0.3457164771
-0.3684700991
-0.3650317635
-0.3412256458
-0.3044331610
-0.2633824278
-0.2240202427
-0.1886926324
-0.1589379795
-0.1355765925
-0.1187107056
-0.1077244793
-0.1012839998
-0.0973372792
-0.0940749079
-0.0914437782
-0.0891672686
-0.0870049291
-0.0847590993
-0.0822749084
-0.0794402758
-0.0761859100
-0.0724853095
-0.0683553769
-0.0638238691
-0.0588280327
-0.0533135358
-0.0472341885
-0.0405507022
-0.0332306895
-0.0252486641
-0.0165860411
-0.0072311370
0.0028208308
0.0135677435
0.0250005810
0.0371034220
0.0498534440
0.0632209233
0.0771692348
0.0916548522
0.1066273481
0.1220753646
0.1380595743
0.1544135794
0.1709580769
0.1875222079
0.2039435571
0.2200684548
0.2357529182
0.2508617285
0.2652681110
0.2788537345
0.2915087119
0.3031315932
0.3136293053
0.3229171802
0.3309189935
0.3375669644
0.3428017563
0.3465724760
0.3488366745
0.3495603466
0.3487179307
0.3462923094
0.3422748088
0.3366651991
0.3294679494
0.3206451101
0.3103170967
0.2986553156
0.2858246529
0.2719834747
0.2572836904
0.2418709863
0.2258846144
0.2094573067
0.1927152750
0.1757782108
0.1587592857
0.1417651508
0.1248959373
0.1082452562
0.0919001981
0.0759413337
0.0604427134
0.0454718674
0.0310898059
0.0173510188
0.0043034758
-0.0080113735
-0.0195585997
-0.0303097935
-0.0402374433
-0.0493157972
-0.0575842592
-0.0650888482
-0.0718741454
-0.0779834867
-0.0834597828
-0.0883448376
-0.0926790170
-0.0965012490
-0.0998490238
-0.1027583913
-0.1052639272
-0.1073987363
-0.1091944845
-0.1106813997
-0.1118882717
-0.1128424524
-0.1135698557
-0.1140949574
-0.1144407955
-0.1146289700
-0.1146796426
-0.1146115375
-0.1144419404
-0.1141866995
-0.1138602245
-0.1134754877
-0.1130440229
-0.1125759261
-0.1120797789
-0.1115622711
-0.1110284878
-0.1104820759
-0.1099252505
-0.1093596478
-0.1087876377
-0.1082115470
-0.1076335483
-0.1070556597
-0.1064797447
-0.1059075125
-0.1053405181
-0.1047801617
-0.1042276893
-0.1036841924
-0.1031506081
-0.1026277191
-0.1021161537
-0.1016163857
-0.1011287344
-0.1006533649
-0.1001902877
-0.0997393590
-0.0993002804
-0.0988724273
-0.0984538645
-0.0980420258
-0.0976341891
-0.0972274780
-0.0968188614
-0.0964051539
-0.0959830025
-0.0955488829
-0.0950991147
-0.0946298635
-0.0941371402
-0.0936168014
-0.0930645491
-0.0924759311
-0.0918463407
-0.0911710167
-0.0904760679
-0.0897994573
-0.0890768357
-0.0882406540
-0.0872242511
-0.0859618539
-0.0843885775
-0.0824404250
-0.0800547643
-0.0771734934
-0.0737410787
-0.0697028839
-0.0650051604
-0.0595950482
-0.0534205749
-0.0464306566
-0.0385750971
-0.0298045886
-0.0200707113
-0.0093259334
0.0024763887
0.0153820105
0.0294375195
0.0446940804
0.0608737925
0.0776003200
0.0945154261
0.1112789739
0.1275689255
0.1430813426
0.1575303863
0.1706483171
0.1821854947
0.1919110076
0.1996175259
0.2051186455
0.2082460850
0.2088496625
0.2067972954
0.2019715887
0.1943685857
0.1843488427
0.1723136626
0.1586429125
0.1436950236
0.1278069909
0.1112943733
0.0944512940
0.0775504397
0.0608430615
0.0445589743
0.0289065569
0.0140727521
0.0002230669
-0.0124984281
-0.0239690981
-0.0341377746
-0.0432421703
-0.0512171352
-0.0580062417
-0.0636371477
-0.0682189416
-0.0719421099
-0.0750785370
-0.0779815057
-0.0810856968
-0.0849071891
-0.0900434596
-0.0971733835
-0.1070572340
-0.1205366824
-0.1385347982
-0.1619032885
-0.1883946329
-0.2130642997
-0.2310017656
-0.2374169294
-0.2276401117
-0.1971220556
-0.1414339262
-0.0562673108
0.0625412646
0.2126189737
0.3839365332
0.5642268672
0.7391371019
0.8922275436
1.0049716626
1.0568397887
1.0401747089
0.9525323865
0.7979872860
0.5976729747
0.3896849484
0.1988605253
0.0298676217
-0.1076674184
-0.2087577904
-0.2730448317
-0.3020889419
-0.3023030527
-0.2822725323
-0.2495080647
-0.2104456498
-0.1704466029
-0.1337975552
-0.1037104538
-0.0818417823
-0.0667557088
-0.0566849943
-0.0501356753
-0.0458661147
-0.0428870286
-0.0404614864
-0.0381049111
-0.0355850787
-0.0329195327
-0.0300646273
-0.0268814570
-0.0233196943
-0.0193317304
-0.0148726756
-0.0099003584
-0.0043753267
0.0017391534
0.0084770968
0.0158697995
0.0239458389
0.0327310737
0.0422486437
0.0525189700
0.0635629907
0.0754728411
0.0882338866
0.1017709778
0.1160025517
0.1308435179
0.1462053402
0.1619960363
0.1781201782
0.1944789643
0.2109705541
0.2274898016
0.2439281156
0.2601734584
0.2761103465
0.2916198505
0.3065795949
0.3208637583
0.3343430733
0.3468848264
0.3583528582
0.3686075634
0.3775058906
0.3849013424
0.3906439756
0.3945795240
0.3966146636
0.3967939045
0.3951834918
0.3918569561
0.3868924265
0.3803725364
0.3723844225
0.3630197257
0.3523745906
0.3405496657
0.3276501033
0.3137855595
0.2990701945
0.2836226720
0.2675661598
0.2510283293
0.2341413560
0.2170419191
0.1998712016
0.1827748906
0.1659031767
0.1494107546
0.1334568226
0.1182031847
0.1037005800
0.0899427529
0.0769477819
0.0647284797
0.0532924203
0.0426430212
0.0327795909
0.0236973286
0.0153873243
0.0078365214
0.0010274023
-0.0050618537
-0.0104571782
-0.0151886123
-0.0192903063
-0.0228005195
-0.0257616208
-0.0282200880
-0.0302265083
-0.0318355782
-0.0331061033
-0.0341000713
-0.0348368828
-0.0353272409
-0.0355954858
-0.0356646330
-0.0355563734
-0.0352910875
-0.0348882194
-0.0343663092
-0.0337425935
-0.0330329839
-0.0322520674
-0.0314131063
-0.0305280380
-0.0296074755
-0.0286607065
-0.0276956946
-0.0267190781
-0.0257361708
-0.0247509619
-0.0237661157
-0.0227829716
-0.0218015445
-0.0208205246
-0.0198355452
-0.0188397168
-0.0178395143
-0.0168422703
-0.0158547387
-0.0148830955
-0.0139329382
-0.0130092353
-0.0121147076
-0.0112494879
-0.0104130115
-0.0096041353
-0.0088211379
-0.0080617196
-0.0073229960
-0.0066013951
-0.0058926734
-0.0051920061
-0.0044939900
-0.0037926438
-0.0030814077
-0.0023531437
-0.0016001354
-0.0008140883
0.0000138707
0.0008931927
0.0018339074
0.0028466226
0.0039425245
0.0051333775
0.0064315244
0.0078498864
0.0094018868
0.0110983717
0.0129379050
0.0148894431
0.0170510215
0.0195382910
0.0224585530
0.0259107600
0.0299855153
0.0347650731
0.0403233384
0.0467258669
0.0540298654
0.0622841915
0.0715293536
0.0817975108
0.0931124734
0.1054897022
0.1189363092
0.1334510569
0.1491183995
0.1658705924
0.1832093318
0.2006597328
0.2177839897
0.2341814450
0.2494922767
0.2633993269
0.2756229701
0.2859206600
0.2940869287
0.2999533873
0.3033887262
0.3042987416
0.3026263436
0.2983515235
0.2914913513
0.2821001884
0.2703690492
0.2567538920
0.2417195289
0.2256948007
0.2090725768
0.1922097552
0.1754272626
0.1590100540
0.1432071134
0.1282314531
0.1142601142
0.1014341663
0.0898586680
0.0795998414
0.0705474361
0.0625371189
0.0557358179
0.0502010445
0.0458670263
0.0425447072
0.0399217470
0.0375625216
0.0349081233
0.0312763602
0.0258617568
0.0177355534
0.0058437507
-0.0108381900
-0.0320494974
-0.0562470303
-0.0807806038
-0.1018929898
-0.1147199165
-0.1132900688
-0.0908476553
-0.0433129866
0.0357421750
0.1493931911
0.2955261651
0.4668393947
0.6508405412
0.8298462876
0.9809845193
1.0812582226
1.1171945450
1.0836650929
0.9836115185
0.8280455122
0.6360488020
0.4347722448
0.2492494124
0.0893868199
-0.0374054715
-0.1273165647
-0.1801347264
-0.1992473874
-0.1915256255
-0.1643798259
-0.1262285261
-0.0845972258
-0.0451167849
-0.0115234245
0.0143412666
0.0325292059
0.0449398187
0.0534797019
0.0591819035
0.0630241335
0.0658131611
0.0681848143
0.0706039799
0.0733646038
0.0765896906
0.0802313041
0.0841121122
0.0883504286
0.0930384839
0.0982190589
0.1039316323
0.1102123804
0.1170941773
0.1246065947
0.1327759023
0.1416250671
0.1511737542
0.1614383261
0.1724469413
0.1842580178
0.1968287653
0.2101005175
0.2240092270
0.2384852912
0.2534535523
0.2688332970
0.2845382571
0.3004765994
0.3165509045
0.3326581914
0.3486899241
0.3645320111
0.3800648059
0.3951631064
0.4096961557
0.4235276413
0.4365156957
0.4485128961
0.4593662644
0.4689172674
0.4770018163
0.4834499597
0.4881202033
0.4910038421
0.4921267916
0.4915229122
0.4892341447
0.4853103247
0.4798091477
0.4727961688
0.4643448032
0.4545363256
0.4434598706
0.4312124328
0.4178988664
0.4036318853
0.3885320634
0.3727278343
0.3563554914
0.3395591881
0.3224909372
0.3053106117
0.2881859440
0.2712925268
0.2548138121
0.2389388068
0.2237310630
0.2091950304
0.1953638056
0.1822652012
0.1699215704
0.1583494734
0.1475600952
0.1375593369
0.1283478161
0.1199208668
0.1122685391
0.1053755725
0.0992212772
0.0937796324
0.0890193330
0.0849037908
0.0813911336
0.0784342057
0.0759805677
0.0739724966
0.0723469856
0.0710357445
0.0699914534
0.0692204168
0.0686960240
0.0683915650
0.0682819386
0.0683436523
0.0685548223
0.0688950248
0.0693449599
0.0698868382
0.0705044787
0.0711833090
0.0719103658
0.0726742942
0.0734653481
0.0742753902
0.0750978917
0.0759279327
0.0767622020
0.0775989969
0.0784382237
0.0792812677
0.0801271412
0.0809712278
0.0818090048
0.0826362630
0.0834491064
0.0842439522
0.0850175307
0.0857668857
0.0864893740
0.0871826657
0.0878451390
0.0884769362
0.0890788461
0.0896519705
0.0901977246
0.0907178366
0.0912143481
0.0916896378
0.0921466102
0.0925885951
0.0930192363
0.0934424910
0.0938626295
0.0942842355
0.0947122056
0.0951517499
0.0956083918
0.0960879675
0.0965966270
0.0971408330
0.0977273617
0.0983633025
0.0990560581
0.0997728688
0.1005078084
0.1013581623
0.1024173244
0.1037746484
0.1055158765
0.1077231398
0.1104749578
0.1138462390
0.1179082803
0.1227287675
0.1283717749
0.1348977657
0.1423635915
0.1508224929
0.1603240990
0.1709144275
0.1826358849
0.1955272665
0.2096628887
0.2252891572
0.2419676513
0.2591488956
0.2763287481
0.2930484007
0.3088943790
0.3234985422
0.3365383742
0.3477380524
0.3568674845
0.3637419121
0.3682219105
0.3702133886
0.3696675892
0.3665810821
0.3609956639
0.3529983778
0.3427215982
0.3303430333
0.3161368143
0.3005750338
0.2841208703
0.2671934576
0.2501682072
0.2333768088
0.2171072295
0.2016037145
0.1870667867
0.1736532467
0.1614761733
0.1506049226
0.1410651290
0.1328384431
0.1258614159
0.1200264233
0.1151821186
0.1111334332
0.1076415762
0.1051970309
0.1034974965
0.1004109664
0.0943580346
0.0843410316
0.0699440240
0.0513328146
0.0292549425
0.0050396829
-0.0194019527
-0.0421104494
-0.0610692238
-0.0645058142
-0.0422723720
0.0120551649
0.1011770719
0.2240698375
0.3759861638
0.5484549658
0.7292816915
0.9025499075
1.0462758656
1.1358127229
1.1571526256
1.1069527807
0.9925270899
0.8314603373
0.6421139598
0.4435485622
0.2527178061
0.0823280399
-0.0591617013
-0.1670700281
-0.2401880568
-0.2817147173
-0.2957282702
-0.2869473031
-0.2607307302
-0.2230777927
-0.1806280585
-0.1403928235
-0.1058025944
-0.0772781803
-0.0548602179
-0.0382401033
-0.0267616218
-0.0194198272
-0.0148602524
-0.0114509824
-0.0085215719
-0.0059192825
-0.0034415604
-0.0009183182
0.0017880653
0.0047827448
0.0081384089
0.0118952796
0.0160611128
0.0206135805
0.0255728600
0.0309950451
0.0369250584
0.0434018138
0.0504582166
0.0581211636
0.0664115427
0.0753442335
0.0849281067
0.0951660245
0.1060549843
0.1175870795
0.1297489066
0.1425210566
0.1558781117
0.1697886457
0.1842152234
0.1991404436
0.2146137747
0.2305076445
0.2466751832
0.2629746521
0.2792694439
0.2954280824
0.3113242227
0.3268366510
0.3418492851
0.3562511736
0.3699364966
0.3828045653
0.3947598222
0.4057118410
0.4155753266
0.4242701153
0.4317211745
0.4378585531
0.4426169972
0.4459361585
0.4477608187
0.4480408902
0.4467314169
0.4437925739
0.4391283781
0.4327577257
0.4248258962
0.4154743035
0.4048404531
0.3930579417
0.3802564576
0.3665617805
0.3520957815
0.3369764231
0.3213177593
0.3052299356
0.2888191889
0.2721878473
0.2554343306
0.2386531501
0.2219349082
0.2053662990
0.1890301193
0.1730053721
0.1573672176
0.1421869086
0.1275317891
0.1134652946
0.1000469521
0.0873323799
0.0753732905
0.0642174064
0.0538828446
0.0443362953
0.0355408305
0.0274601938
0.0200588011
0.0133017396
0.0071547689
0.0015843200
-0.0034425040
-0.0079579282
-0.0119935059
-0.0155801184
-0.0187479753
-0.0215266144
-0.0239449015
-0.0260310012
-0.0278120659
-0.0293143571
-0.0305634612
-0.0315842923
-0.0324010929
-0.0330374337
-0.0335162133
-0.0338596587
-0.0340893248
-0.0342260950
-0.0342901804
-0.0343007186
-0.0342628126
-0.0341778433
-0.0340500541
-0.0338834545
-0.0336818210
-0.0334486964
-0.0331873901
-0.0329009780
-0.0325923026
-0.0322639729
-0.0319183645
-0.0315576195
-0.0311837183
-0.0307993722
-0.0304077490
-0.0300117977
-0.0296142343
-0.0292175410
-0.0288239668
-0.0284355270
-0.0280539756
-0.0276806924
-0.0273167790
-0.0269631040
-0.0266203022
-0.0262887750
-0.0259686905
-0.0256599832
-0.0253623542
-0.0250737876
-0.0247750632
-0.0244710096
-0.0241737449
-0.0238935671
-0.0236389541
-0.0234165637
-0.0232312335
-0.0230858844
-0.0229801007
-0.0229104399
-0.0228716063
-0.0228564842
-0.0228561374
-0.0228598100
-0.0228549256
-0.0228270880
-0.0227600805
-0.0226358667
-0.0224345897
-0.0221345727
-0.0217123187
-0.0211425107
-0.0203980113
-0.0194498631
-0.0182672888
-0.0168613893
-0.0151859525
-0.0130944291
-0.0104548283
-0.0071504007
-0.0030796378
0.0018437278
0.0076906384
0.0145152399
0.0223550627
0.0312323493
0.0411541008
0.0521120772
0.0640827977
0.0770275400
0.0908923254
0.1056078028
0.1211013728
0.1373835909
0.1540886514
0.1707728904
0.1870304108
0.2024930820
0.2168305398
0.2297501867
0.2409971917
0.2503544905
0.2576427849
0.2627205438
0.2654840024
0.2658671622
0.2638417918
0.2594174642
0.2526423729
0.2436033148
0.2324047872
0.2192668662
0.2046128698
0.1888452431
0.1723338012
0.1554157291
0.1383955820
0.1215452847
0.1051041325
0.0892787901
0.0742432927
0.0601390452
0.0470748224
0.0351267695
0.0243384012
0.0147206024
0.0062516280
-0.0011228971
-0.0074899780
-0.0129592821
-0.0175244104
-0.0213733453
-0.0248223250
-0.0282479263
-0.0320870869
-0.0368368531
-0.0430543670
-0.0513568661
-0.0624216835
-0.0769862480
-0.0958480841
-0.1197520362
-0.1466837338
-0.1723511675
-0.1923940365
-0.2024302129
-0.1980557408
-0.1748448370
-0.1283498907
-0.0541014636
0.0527709511
0.1916913324
0.3542117583
0.5299478993
0.7067570558
0.8707381579
1.0062317658
1.0958200846
1.1203551636
1.0694645730
0.9575503237
0.8020264157
0.6193677612
0.4251101852
0.2338504248
0.0592461296
-0.0860773971
-0.1959898181
-0.2720463569
-0.3168158421
-0.3337419538
-0.3271432235
-0.3022130343
-0.2650196206
-0.2225060683
-0.1821270615
-0.1472672005
-0.1183571364
-0.0954951875
-0.0784343575
-0.0665823353
-0.0590014953
-0.0544089248
-0.0511860655
-0.0483697835
-0.0458744528
-0.0435118328
-0.0411213494
-0.0385700943
-0.0357528256
-0.0325919669
-0.0290375843
-0.0250673822
-0.0206867294
-0.0159132660
-0.0107043162
-0.0050084423
0.0012182847
0.0080130036
0.0154060630
0.0234210210
0.0320746457
0.0413769148
0.0513310158
0.0619333458
0.0731735118
0.0850343305
0.0974918558
0.1105168493
0.1240755197
0.1381274682
0.1526255058
0.1675156532
0.1827582645
0.1983872384
0.2142645379
0.2302297444
0.2461299651
0.2618198329
0.2771615060
0.2920246683
0.3062865292
0.3198318238
0.3325528125
0.3443492815
0.3551285425
0.3648054328
0.3733023152
0.3805490781
0.3864831354
0.3910494267
0.3942004171
0.3958960786
0.3961025460
0.3947912141
0.3919407894
0.3875375037
0.3815458102
0.3738447086
0.3645690274
0.3538878572
0.3419638179
0.3289531177
0.3150054394
0.3002639268
0.2848651846
0.2689392785
0.2526097350
0.2359935418
0.2192011473
0.2023364608
0.1854968528
0.1687731545
0.1522496582
0.1360041171
0.1201077452
0.1046252176
0.0896146783
0.0751285608
0.0612142945
0.0479129364
0.0352590047
0.0232804780
0.0119987963
0.0014288602
-0.0084209684
-0.0175488669
-0.0259595518
-0.0336624487
-0.0406603041
-0.0469890204
-0.0526914290
-0.0578088309
-0.0623809968
-0.0664461669
-0.0700410512
-0.0732008293
-0.0759591504
-0.0783481335
-0.0803983671
-0.0821389094
-0.0835972883
-0.0847995035
-0.0857703700
-0.0865338877
-0.0871126148
-0.0875275789
-0.0877982776
-0.0879426779
-0.0879772165
-0.0879167999
-0.0877749090
-0.0875638026
-0.0872942654
-0.0869755516
-0.0866153852
-0.0862199600
-0.0857939391
-0.0853404556
-0.0848611120
-0.0843560315
-0.0838304265
-0.0832904308
-0.0827389588
-0.0821787740
-0.0816124886
-0.0810425639
-0.0804713090
-0.0799006616
-0.0793318973
-0.0787660688
-0.0782040777
-0.0776466745
-0.0770944584
-0.0765478778
-0.0760072297
-0.0754726604
-0.0749441647
-0.0744215866
-0.0739046187
-0.0733928028
-0.0728855295
-0.0723820382
-0.0718814173
-0.0713826042
-0.0708843849
-0.0703853945
-0.0698841172
-0.0693788857
-0.0688678819
-0.0683491364
-0.0678205289
-0.0672797880
-0.0667245129
-0.0661522088
-0.0655602390
-0.0649458154
-0.0643059990
-0.0636376997
-0.0629441266
-0.0622949933
-0.0616552816
-0.0609555417
-0.0601277997
-0.0591056690
-0.0578243509
-0.0562206343
-0.0542328956
-0.0518010988
-0.0488667958
-0.0453731259
-0.0412648159
-0.0364881805
-0.0309911220
-0.0247231301
-0.0176352823
-0.0096802438
-0.0008122675
0.0090124041
0.0198347709
0.0316940334
0.0446278044
0.0586721656
0.0738336051
0.0898612620
0.1064218590
0.1231950038
0.1398731896
0.1561617948
0.1717790831
0.1864562035
0.1999371901
0.2119789624
0.2223513251
0.2308369683
0.2372314672
0.2413432824
0.2429937596
0.2420171299
0.2382831520
0.2319718180
0.2233899692
0.2128373620
0.2006072120
0.1869874426
0.1722592553
0.1566967623
0.1405669863
0.1241298609
0.1076382299
0.0913378480
0.0754673313
0.0602578138
0.0459331516
0.0327101103
0.0205133528
0.0092330491
-0.0009180608
-0.0098006413
-0.0173498447
-0.0235753109
-0.0285611677
-0.0324660306
-0.0355230031
-0.0380396763
-0.0403981290
-0.0430549282
-0.0465411282
-0.0514625300
-0.0585003768
-0.0684106201
-0.0846880617
-0.1162526043
-0.1558943123
-0.1956274380
-0.2286002485
-0.2490950262
-0.2525280688
-0.2354496889
-0.1955442145
-0.1316299888
-0.0436593699
0.0672812688
0.1989715385
0.3480570355
0.5100493409
0.6793260206
0.8490578868
0.9979486993
1.1003062978
1.1422798160
1.1173644717
1.0256282391
0.8739670387
0.6856323345
0.4878832846
0.3038899608
0.1478525171
0.0285997539
-0.0500978312
-0.0895280428
-0.0959722439
-0.0771322707
-0.0427415502
-0.0021476825
0.0375882549
0.0716917067
0.0976746397
0.1153355433
0.1267294475
0.1341312540
0.1386747320
0.1414351753
0.1432781670
0.1448595791
0.1466255728
0.1488125984
0.1514473952
0.1543624294
0.1576156790
0.1613314853
0.1655595106
0.1703467058
0.1757373104
0.1817728526
0.1884921491
0.1959313053
0.2041240354
0.2131065170
0.2228916747
0.2334743549
0.2448373011
0.2569511540
0.2697744515
0.2832536286
0.2973230174
0.3119048473
0.3269092447
0.3422342333
0.3577657339
0.3733775644
0.3889314400
0.4042769728
0.4192514882
0.4336792319
0.4473720245
0.4601295833
0.4717395230
0.4820203372
0.4908765676
0.4981954727
0.5038830671
0.5078650667
0.5100868609
0.5105137218
0.5091308171
0.5059432097
0.5009758579
0.4942736149
0.4859012298
0.4759433465
0.4645045043
0.4517091380
0.4377015774
0.4226460478
0.4067266698
0.3901474591
0.3731323268
0.3559251990
0.3387434174
0.3216460846
0.3047626029
0.2882198704
0.2721319089
0.2565998635
0.2417120028
0.2275437189
0.2141575273
0.2016030670
0.1899171005
0.1791235137
0.1692333160
0.1602446402
0.1521427427
0.1449000032
0.1384759249
0.1328171345
0.1278573822
0.1235175416
0.1197365375
0.1165118737
0.1137955241
0.1115395369
0.1096984327
0.1082282426
0.1070871668
0.1062360421
0.1056383432
0.1052601832
0.1050703132
0.1050401224
0.1051436382
0.1053575266
0.1056610933
0.1060362819
0.1064676743
0.1069424906
0.1074505888
0.1079844651
0.1085392539
0.1091127277
0.1097028569
0.1102955389
0.1108855848
0.1114699999
0.1120459105
0.1126105641
0.1131613292
0.1136959223
0.1142139312
0.1147158803
0.1152024195
0.1156743201
0.1161324742
0.1165778952
0.1170117175
0.1174351968
0.1178497097
0.1182567542
0.1186579491
0.1190550347
0.1194498720
0.1198444434
0.1202408524
0.1206413236
0.1210482026
0.1214639563
0.1218911727
0.1223325607
0.1227909506
0.1232821622
0.1238217410
0.1244031906
0.1250288261
0.1257086514
0.1264612045
0.1273144666
0.1283058697
0.1294822966
0.1309000812
0.1326250081
0.1347323130
0.1373067466
0.1404426896
0.1442440052
0.1487891772
0.1541208038
0.1604424489
0.1679210217
0.1766697183
0.1867480212
0.1981616996
0.2108628092
0.2247496923
0.2396669777
0.2554055809
0.2717027039
0.2882418354
0.3046528550
0.3205129862
0.3353560194
0.3487707547
0.3603233324
0.3696363482
0.3764147113
0.3804456438
0.3815986812
0.3798256720
0.3751607779
0.3677204741
0.3577035485
0.3453911025
0.3311465507
0.3154156205
0.2987263531
0.2816891023
0.2648376693
0.2483786550
0.2325976496
0.2177352884
0.2039820306
0.1914781598
0.1803137838
0.1705288165
0.1621127863
0.1550049098
0.1490942255
0.1442195966
0.1401697099
0.1366830770
0.1337150198
0.1314056464
0.1273640086
0.1196671699
0.1072501095
0.0899057606
0.0682850109
0.0438967023
0.0191076312
-0.0034787043
-0.0191583744
-0.0155148920
0.0169636876
0.0837731729
0.1863932361
0.3222874132
0.4849031042
0.6636715727
0.8437030317
0.9977015145
1.0945810268
1.1161075028
1.0576883775
0.9283725874
0.7503750313
0.5528541583
0.3621706414
0.1975005048
0.0706109613
-0.0141395877
-0.0580747197
-0.0650832391
-0.0470057793
-0.0144096099
0.0241660784
0.0622101733
0.0952396419
0.1207995295
0.1384629608
0.1500568691
0.1580574666
0.1634169941
0.1669288218
0.1692838467
0.1710692970
0.1727689892
0.1747643185
0.1773342873
0.1806555054
0.1848021895
0.1897461639
0.1953568598
0.2014014589
0.2078974084
0.2150850618
0.2230155061
0.2317264486
0.2412422169
0.2515737588
0.2627186424
0.2746610561
0.2873718085
0.3008083288
0.3149146661
0.3296214899
0.3448560376
0.3607028476
0.3770012707
0.3934943123
0.4099418901
0.4261205814
0.4418217069
0.4568512618
0.4710299159
0.4841930135
0.4961905735
0.5068872892
0.5161625285
0.5239103341
0.5300394228
0.5344731862
0.5371496905
0.5380216762
0.5370565586
0.5342364274
0.5295580468
0.5230328557
0.5146485939
0.5043971126
0.4925248889
0.4792857653
0.4649203937
0.4496562354
0.4337074417
0.4172723059
0.4005333039
0.3836596096
0.3668072064
0.3501188869
0.3337242530
0.3177397161
0.3022684967
0.2874006394
0.2732131929
0.2597701544
0.2471223333
0.2353073485
0.2243496280
0.2142604094
0.2050377393
0.1966664740
0.1891213367
0.1823982699
0.1764445461
0.1711937739
0.1665822880
0.1625491483
0.1590361405
0.1559878736
0.1533543278
0.1510911024
0.1491566691
0.1475122253
0.1461216941
0.1449517243
0.1439716903
0.1431536921
0.1424725554
0.1419058317
0.1414337979
0.1410394568
0.1407085368
0.1404294918
0.1401935015
0.1399944713
0.1398290321
0.1396965407
0.1395990793
0.1395414560
0.1395310974
0.1395644124
0.1396352495
0.1397438991
0.1398908527
0.1400747524
0.1402919385
0.1405388608
0.1408122334
0.1411090344
0.1414265064
0.1417621559
0.1421137538
0.1424793256
0.1428569008
0.1432444878
0.1436403447
0.1440429936
0.1444512212
0.1448640780
0.1452808790
0.1457012033
0.1461248941
0.1465520590
0.1469830696
0.1474185620
0.1478594361
0.1483068564
0.1487622514
0.1492273592
0.1496935710
0.1501753030
0.1507282960
0.1514135543
0.1522970333
0.1534496392
0.1549472293
0.1568706119
0.1593055459
0.1623427416
0.1660778600
0.1706115130
0.1760492636
0.1825016256
0.1900840640
0.1989169945
0.2091257838
0.2209580126
0.2345798224
0.2495545082
0.2654367384
0.2818011817
0.2982425069
0.3143753830
0.3298344349
0.3442718446
0.3573561298
0.3687755065
0.3782381911
0.3854724003
0.3902263508
0.3922682596
0.3913863439
0.3873888242
0.3801269156
0.3698932988
0.3573314504
0.3430446837
0.3275822198
0.3114391883
0.2950566269
0.2788214815
0.2630666064
0.2480707641
0.2340586252
0.2212007685
0.2096136813
0.1993597589
0.1904473050
0.1828305584
0.1764116785
0.1710026422
0.1664721081
0.1626922040
0.1592888612
0.1556382416
0.1508667377
0.1438509725
0.1332384442
0.1178525788
0.0971404704
0.0722524782
0.0462510903
0.0241109237
0.0127187240
0.0197686852
0.0524588273
0.1199991428
0.2260408054
0.3681260640
0.5376882432
0.7200517431
0.8936585529
1.0264968779
1.0932201200
1.0818442008
0.9937498604
0.8436835470
0.6585627385
0.4604159170
0.2686627120
0.0991099278
-0.0378724558
-0.1373512840
-0.1994931275
-0.2252922257
-0.2227819875
-0.2009912938
-0.1676516196
-0.1291970349
-0.0907642041
-0.0561923861
-0.0280234344
-0.0074979186
0.0063346105
0.0154429561
0.0212136817
0.0248183776
0.0272136611
0.0291411757
0.0311275526
0.0334843684
0.0363082162
0.0394807157
0.0428072044
0.0465069323
0.0506515646
0.0552858893
0.0604513799
0.0661861951
0.0725251791
0.0794998613
0.0871384566
0.0954658651
0.1045036723
0.1142701491
0.1247802516
0.1361479782
0.1484312880
0.1615320838
0.1753509467
0.1897872883
0.2047393505
0.2201042057
0.2357777533
0.2516539027
0.2676234853
0.2835758923
0.2993993454
0.3149808965
0.3302064281
0.3449606528
0.3591271138
0.3725881847
0.3852251354
0.3969183528
0.4075471317
0.4169895975
0.4251227056
0.4318222422
0.4369628235
0.4404178964
0.4420597380
0.4417490863
0.4392791897
0.4347448294
0.4283177053
0.4201643586
0.4104461724
0.3993193756
0.3869371554
0.3734530582
0.3590163590
0.3437711746
0.3278564631
0.3114060243
0.2945484996
0.2774073720
0.2601009657
0.2427424470
0.2254398232
0.2082959436
0.1914084989
0.1748700212
0.1587678843
0.1431843037
0.1281963361
0.1138758800
0.1002896755
0.0874993041
0.0755611889
0.0645265946
0.0544416274
0.0453262751
0.0371292035
0.0298006384
0.0232863127
0.0175323853
0.0124866940
0.0080987550
0.0043197636
0.0011025936
-0.0015982025
-0.0038263934
-0.0056240867
-0.0070318376
-0.0080885780
-0.0088315609
-0.0092963611
-0.0095168741
-0.0095253172
-0.0093522286
-0.0090264680
-0.0085752163
-0.0080239755
-0.0073965692
-0.0067151420
-0.0060001599
-0.0052704103
-0.0045430013
-0.0038321704
-0.0031465509
-0.0024922904
-0.0018738580
-0.0012940439
-0.0007539595
-0.0002530377
0.0002109675
0.0006419808
0.0010456055
0.0014291238
0.0018014966
0.0021733633
0.0025570424
0.0029588519
0.0033669930
0.0037735937
0.0041718741
0.0045559885
0.0049210249
0.0052630055
0.0055788862
0.0058665570
0.0061248417
0.0063534982
0.0065530502
0.0067243324
0.0068689689
0.0069895178
0.0070894709
0.0071732543
0.0072462276
0.0073146847
0.0073858533
0.0074679015
0.0075700131
0.0077023615
0.0078760554
0.0081031371
0.0083965831
0.0087703036
0.0092391430
0.0098188793
0.0105262247
0.0113654700
0.0122903153
0.0134317631
0.0149425534
0.0169607476
0.0196097279
0.0229982563
0.0272206604
0.0323566526
0.0384712667
0.0456148576
0.0538231013
0.0631169949
0.0735028570
0.0849723268
0.0975023651
0.1110552537
0.1255785954
0.1410834667
0.1574873190
0.1742227792
0.1907481316
0.2065766496
0.2212765964
0.2344712244
0.2458387754
0.2551124808
0.2620805615
0.2665862276
0.2685276789
0.2678581044
0.2645854307
0.2587713841
0.2505323295
0.2400396213
0.2275196035
0.2132485921
0.1976479902
0.1811850382
0.1642815262
0.1473135844
0.1306115105
0.1144597608
0.0990971301
0.0847167611
0.0714661440
0.0594471170
0.0487158658
0.0392829238
0.0311131724
0.0241258405
0.0181945046
0.0131688180
0.0089523368
0.0053243968
0.0019273888
-0.0017277134
-0.0062599896
-0.0124196948
-0.0210888154
-0.0332810692
-0.0501419262
-0.0725573091
-0.0984204176
-0.1240445778
-0.1451335562
-0.1567815598
-0.1534732360
-0.1290836730
-0.0769460780
0.0073881738
0.1252887959
0.2739292338
0.4454757261
0.6270873045
0.8009157935
0.9441058112
1.0292174556
1.0405759441
0.9834077786
0.8673922506
0.7054244214
0.5136139116
0.3112858111
0.1209812196
-0.0374359237
-0.1619756526
-0.2518079469
-0.3076871168
-0.3321212206
-0.3293720614
-0.3054549296
-0.2681384426
-0.2267576454
-0.1876251548
-0.1529597529
-0.1241780232
-0.1019666303
-0.0862823195
-0.0763519175
-0.0706723317
-0.0670238079
-0.0640478859
-0.0616498772
-0.0595491494
-0.0575113980
-0.0553484895
-0.0529175468
-0.0501215729
-0.0469098969
-0.0432781759
-0.0392614489
-0.0348238044
-0.0298980996
-0.0244314639
-0.0183781951
-0.0116997583
-0.0043647868
0.0036509185
0.0123643886
0.0217854870
0.0319169090
0.0427541823
0.0542856668
0.0664925544
0.0793488693
0.0928214676
0.1068700380
0.1214483054
0.1366323527
0.1523602527
0.1684484123
0.1847201056
0.2010061593
0.2171455525
0.2329854198
0.2483810513
0.2631958928
0.2773015457
0.2905777670
0.3029124688
0.3142015190
0.3243484337
0.3332648050
0.3408703805
0.3470930635
0.3518689129
0.3551421432
0.3568651243
0.3569983820
0.3555105975
0.3523786076
0.3475874049
0.3411203383
0.3329101950
0.3230939993
0.3118533358
0.2993644675
0.2857974250
0.2713150179
0.2560728264
0.2402192014
0.2238952639
0.2072349057
0.1903647891
0.1734043467
0.1564657818
0.1396540681
0.1230669499
0.1067949418
0.0909213291
0.0755221675
0.0606662833
0.0464152733
0.0328235045
0.0199381149
0.0077990126
-0.0035611235
-0.0141168444
-0.0238499301
-0.0327449017
-0.0407940531
-0.0480426349
-0.0545408559
-0.0603373914
-0.0654793700
-0.0700123729
-0.0739804344
-0.0774260416
-0.0803901344
-0.0829121056
-0.0850297286
-0.0867789317
-0.0881940193
-0.0893077485
-0.0901513294
-0.0907544251
-0.0911451513
-0.0913500768
-0.0913942232
-0.0913010651
-0.0910925297
-0.0907889973
-0.0904093012
-0.0899707271
-0.0894890142
-0.0889782596
-0.0884499061
-0.0879131305
-0.0873755504
-0.0868432362
-0.0863207114
-0.0858109521
-0.0853153874
-0.0848338994
-0.0843648227
-0.0839049453
-0.0834495076
-0.0829922033
-0.0825251786
-0.0820390329
-0.0815275855
-0.0810013651
-0.0804666959
-0.0799287136
-0.0793919511
-0.0788603392
-0.0783372064
-0.0778252785
-0.0773266792
-0.0768429295
-0.0763749610
-0.0759232718
-0.0754878803
-0.0750682054
-0.0746630632
-0.0742706678
-0.0738886306
-0.0735139608
-0.0731430652
-0.0727717482
-0.0723952177
-0.0720081204
-0.0716045173
-0.0711778672
-0.0707210267
-0.0702262496
-0.0696851878
-0.0690888904
-0.0684278043
-0.0676917741
-0.0668700419
-0.0659512474
-0.0649353337
-0.0639150523
-0.0627901545
-0.0614161832
-0.0596612547
-0.0574059950
-0.0545432889
-0.0509782726
-0.0466283335
-0.0414231106
-0.0353044941
-0.0282266258
-0.0201558986
-0.0110709571
-0.0009626972
0.0101657341
0.0222989379
0.0354092644
0.0494568120
0.0643894281
0.0801446817
0.0965859689
0.1132958899
0.1298331405
0.1457919745
0.1608022034
0.1745291964
0.1866738804
0.1969727746
0.2051986052
0.2111602346
0.2147021032
0.2157042094
0.2140821089
0.2097869155
0.2027973677
0.1933498197
0.1818401674
0.1686470963
0.1541312632
0.1386352983
0.1224838086
0.1059833778
0.0894225665
0.0730719119
0.0571839280
0.0419931057
0.0277159127
0.0145507932
0.0025799666
-0.0084614698
-0.0183901728
-0.0270392936
-0.0343308818
-0.0402767023
-0.0449782255
-0.0486258187
-0.0514987097
-0.0539649871
-0.0564816000
-0.0595943581
-0.0639379318
-0.0702358523
-0.0793005110
-0.0920331604
-0.1094239134
-0.1324533732
-0.1589167577
-0.1841693781
-0.2034844129
-0.2120835092
-0.2051367826
-0.1777628174
-0.1250286667
-0.0419498519
0.0757385422
0.2245031052
0.3950396918
0.5751669000
0.7498332786
0.9011173445
1.0082274017
1.0491169645
1.0179490709
0.9182582040
0.7623350813
0.5722973276
0.3745407780
0.1909673721
0.0365101014
-0.0802279633
-0.1572900699
-0.1978646085
-0.2067810628
-0.1904459934
-0.1568430379
-0.1155329108
-0.0759205684
-0.0416275516
-0.0141457992
0.0059858331
0.0191837465
0.0268195990
0.0312188804
0.0343672965
0.0366690344
0.0385538756
0.0403648047
0.0423580100
0.0447028825
0.0474820169
0.0506912109
0.0542958809
0.0583865742
0.0630268000
0.0682709711
0.0741668711
0.0807556548
0.0880718478
0.0961433465
0.1049914185
0.1146307020
0.1250692065
0.1363083121
0.1483427700
0.1611905390
0.1749258352
0.1894313333
0.2045684381
0.2201967399
0.2361731100
0.2523549085
0.2686002304
0.2847679057
0.3007174991
0.3163093099
0.3314043728
0.3458644567
0.3595520690
0.3723306393
0.3840646221
0.3946192318
0.4038604173
0.4116548626
0.4178699865
0.4223739424
0.4250356188
0.4257188387
0.4243618104
0.4210677102
0.4159540437
0.4091402149
0.4007475271
0.3908992122
0.3797220760
0.3673473463
0.3539083590
0.3395403487
0.3243804488
0.3085676917
0.2922430085
0.2755492294
0.2586310833
0.2416351979
0.2247100999
0.2080062148
0.1916758671
0.1758732799
0.1607545753
0.1464641773
0.1330264318
0.1204351414
0.1086861280
0.0977722248
0.0876832759
0.0784061364
0.0699246723
0.0622197607
0.0552692884
0.0490480542
0.0435277018
0.0386768703
0.0344612094
0.0308433802
0.0277830545
0.0252369152
0.0231586563
0.0214989825
0.0202056093
0.0192230999
0.0184926334
0.0179576636
0.0176165042
0.0174582454
0.0174643564
0.0176175234
0.0179016491
0.0183018532
0.0188044718
0.0193970580
0.0200683814
0.0208084284
0.0216084022
0.0224607128
0.0233579500
0.0242919813
0.0252556778
0.0262431275
0.0272496352
0.0282717223
0.0293071268
0.0303548037
0.0314149246
0.0324883774
0.0335715281
0.0346580863
0.0357421777
0.0368183745
0.0378816954
0.0389276058
0.0399520175
0.0409512890
0.0419222251
0.0428620774
0.0437685439
0.0446397692
0.0454743444
0.0462713072
0.0470301506
0.0477522219
0.0484422552
0.0491057993
0.0497488497
0.0503778483
0.0509996837
0.0516216910
0.0522516518
0.0528977943
0.0535687931
0.0542721759
0.0550118399
0.0558385202
0.0568163478
0.0580133747
0.0595015744
0.0613568415
0.0636589921
0.0664917633
0.0699428137
0.0741037232
0.0790699927
0.0849410447
0.0918202228
0.0998147885
0.1090349977
0.1195972203
0.1317046173
0.1452200542
0.1598640234
0.1753506813
0.1913878486
0.2076770101
0.2239133148
0.2397855756
0.2549762700
0.2691615391
0.2820111887
0.2931886883
0.3023511719
0.3091494374
0.3132279470
0.3142248131
0.3118413310
0.3063336865
0.2981476565
0.2877102636
0.2754297756
0.2616957060
0.2468788142
0.2313313452
0.2153874175
0.1993624966
0.1835532937
0.1682377655
0.1536751141
0.1401057872
0.1277514780
0.1168151251
0.1072102822
0.0987614918
0.0916424078
0.0858954072
0.0814271416
0.0780085368
0.0752747934
0.0727253861
0.0697240642
0.0654988513
0.0591420456
0.0496099381
0.0357116712
0.0167847777
-0.0063836881
-0.0314676953
-0.0546021500
-0.0703827267
-0.0718660772
-0.0519392154
-0.0050448626
0.0768599675
0.1962157670
0.3492537514
0.5259958596
0.7102547533
0.8796272154
1.0065088248
1.0697416377
1.0592829819
0.9753806090
0.8285726943
0.6396878369
0.4395585508
0.2531729976
0.0923279461
-0.0343950753
-0.1226218827
-0.1721856370
-0.1871268438
-0.1754040875
-0.1451298673
-0.1053104509
-0.0635828731
-0.0254679473
0.0056297350
0.0284218035
0.0437361097
0.0541434305
0.0611417858
0.0657883219
0.0690180663
0.0715784682
0.0740294773
0.0767436723
0.0799062635
0.0835150921
0.0873996043
0.0916294925
0.0963198734
0.1015185746
0.1072696547
0.1136134036
0.1205863424
0.1282212231
0.1365470292
0.1455889867
0.1553685963
0.1659036004
0.1772463976
0.1894414786
0.2024237066
0.2161201904
0.2304525663
0.2453369974
0.2606841742
0.2763993145
0.2923821632
0.3085269923
0.3247226012
0.3408523163
0.3567939914
0.3724200074
0.3875972724
0.4021872217
0.4160458179
0.4290235506
0.4409654368
0.4517110205
0.4610943732
0.4689440934
0.4750836254
0.4793330271
0.4816415218
0.4820620027
0.4806548451
0.4774869382
0.4726316851
0.4661690030
0.4581853231
0.4487735905
0.4380332786
0.4260706791
0.4129988904
0.3989375369
0.3840127566
0.3683572019
0.3521100390
0.3354169480
0.3184301232
0.3013082728
0.2842166189
0.2673268977
0.2508173594
0.2348727680
0.2196819236
0.2053038210
0.1917252598
0.1789578413
0.1670089037
0.1558815222
0.1455745087
0.1360824125
0.1273955195
0.1194998528
0.1123771725
0.1060049755
0.1003564958
0.0954007045
0.0911023094
0.0874217555
0.0843152247
0.0817346359
0.0796276449
0.0779376447
0.0766037650
0.0755608727
0.0747395962
0.0741121533
0.0736773873
0.0734093056
0.0732838975
0.0732811256
0.0733832939
0.0735742310
0.0738392901
0.0741653487
0.0745408083
0.0749555953
0.0754011598
0.0758704768
0.0763580391
0.0768595394
0.0773717150
0.0778927890
0.0784225085
0.0789621453
0.0795144953
0.0800848804
0.0806757337
0.0812834827
0.0819048637
0.0825370646
0.0831777251
0.0838249369
0.0844772433
0.0851334282
0.0857914459
0.0864492229
0.0871051366
0.0877580162
0.0884071427
0.0890522489
0.0896935194
0.0903315906
0.0909675509
0.0916029403
0.0922397506
0.0928804255
0.0935278606
0.0941854032
0.0948568524
0.0955464591
0.0962589261
0.0969994080
0.0977735110
0.0985872935
0.0994472654
0.1003603885
0.1013233235
0.1022827970
0.1033276729
0.1045720186
0.1061241315
0.1080864066
0.1105553359
0.1136215083
0.1173696100
0.1218784240
0.1272208305
0.1334638065
0.1406684275
0.1488901713
0.1581793192
0.1685803490
0.1801318355
0.1928664507
0.2068186600
0.2222301386
0.2387443047
0.2557662183
0.2727521368
0.2892095149
0.3046970044
0.3188244544
0.3312529113
0.3416946357
0.3499132184
0.3557235102
0.3589915592
0.3596346108
0.3576211079
0.3529706904
0.3457541955
0.3360936577
0.3241623086
0.3102350951
0.2948112592
0.2783990703
0.2614575621
0.2443965880
0.2275768213
0.2113097548
0.1958577013
0.1814337930
0.1682019820
0.1562770402
0.1457245591
0.1365609500
0.1287534439
0.1222200914
0.1168296369
0.1124005198
0.1087014090
0.1054921772
0.1039374314
0.1023990502
0.0983639344
0.0901580457
0.0769464067
0.0587331011
0.0363612732
0.0115129049
-0.0132917942
-0.0346937480
-0.0494081089
-0.0516931403
-0.0293907877
0.0257436150
0.1173472603
0.2444498672
0.4014736809
0.5782334731
0.7599365418
0.9267668258
1.0513436876
1.1131758657
1.1026047316
1.0200577773
0.8760470845
0.6911693048
0.4935778914
0.2979879309
0.1168793662
-0.0394646815
-0.1643862959
-0.2548527657
-0.3114565846
-0.3373141759
-0.3359943717
-0.3153383466
-0.2824756242
-0.2434080838
-0.2030099605
-0.1650278451
-0.1320806842
-0.1056597800
-0.0860650578
-0.0720198758
-0.0621897193
-0.0554725179
-0.0509117605
-0.0476991698
-0.0451736854
-0.0428195909
-0.0402664819
-0.0372892654
-0.0338081604
-0.0298886974
-0.0257417185
-0.0214600907
-0.0168040318
-0.0117318808
-0.0062072846
-0.0001970009
0.0063288217
0.0133966429
0.0210295314
0.0292471642
0.0380658269
0.0474984138
0.0575544277
0.0682399800
0.0795577906
0.0915071883
0.1040875884
0.1172909393
0.1310729274
0.1453822353
0.1601620111
0.1753498411
0.1908777499
0.2066722000
0.2226540922
0.2387387656
0.2548359971
0.2708500021
0.2866794340
0.3022173845
0.3173513832
0.3319633981
0.3459298353
0.3591215390
0.3714037916
0.3826363138
0.3927206572
0.4015931057
0.4091618938
0.4153493638
0.4200920340
0.4233405983
0.4250598827
0.4252281834
0.4238374038
0.4208936068
0.4164170315
0.4104420927
0.4030173811
0.3942056634
0.3840838822
0.3727431558
0.3602887786
0.3468401632
0.3325302966
0.3174987301
0.3018076853
0.2855821043
0.2689676856
0.2521012030
0.2351105053
0.2181145163
0.2012232350
0.1845377355
0.1681501668
0.1521437531
0.1365927938
0.1215626972
0.1071105931
0.0932852650
0.0801265915
0.0676655267
0.0559240994
0.0449154137
0.0346436488
0.0251040588
0.0162829731
0.0081747554
0.0008010313
-0.0058774983
-0.0119037659
-0.0173192780
-0.0221641148
-0.0264769307
-0.0302949537
-0.0336539860
-0.0365884036
-0.0391311564
-0.0413137683
-0.0431663371
-0.0447175343
-0.0459946057
-0.0470234062
-0.0478291722
-0.0484365159
-0.0488686580
-0.0491473929
-0.0492930892
-0.0493246893
-0.0492597094
-0.0491142399
-0.0489029449
-0.0486390624
-0.0483343793
-0.0479987563
-0.0476401678
-0.0472651448
-0.0468787922
-0.0464848664
-0.0460908246
-0.0457016928
-0.0453193962
-0.0449457808
-0.0445826132
-0.0442315809
-0.0438942918
-0.0435722748
-0.0432669462
-0.0429787269
-0.0427069476
-0.0424508078
-0.0422094277
-0.0419818483
-0.0417670310
-0.0415638583
-0.0413711330
-0.0411875791
-0.0410118408
-0.0408424834
-0.0406779926
-0.0405167751
-0.0403571582
-0.0401973898
-0.0400356386
-0.0398699940
-0.0396984662
-0.0395189859
-0.0393294047
-0.0391274949
-0.0389109493
-0.0386773818
-0.0384243265
-0.0381492664
-0.0378505512
-0.0375276042
-0.0371787719
-0.0368030813
-0.0363973773
-0.0359544020
-0.0354627959
-0.0349070968
-0.0342677408
-0.0335210613
-0.0326392972
-0.0315909216
-0.0303407818
-0.0288496591
-0.0270742325
-0.0249670789
-0.0224766728
-0.0195473869
-0.0161194914
-0.0121291543
-0.0075084418
-0.0021853174
0.0039163572
0.0108768226
0.0187804381
0.0277163808
0.0377789039
0.0491004144
0.0616949171
0.0753708908
0.0899278259
0.1051604744
0.1208588500
0.1368082281
0.1527891457
0.1685774014
0.1839440556
0.1986554302
0.2124731089
0.2251539367
0.2364500207
0.2461087293
0.2538726928
0.2594798029
0.2626632132
0.2631515289
0.2608008616
0.2558263198
0.2485017118
0.2390979190
0.2278825296
0.2151196481
0.2010704112
0.1859930351
0.1701428159
0.1537721286
0.1371304282
0.1204642488
0.1040172043
0.0880299878
0.0727403728
0.0583833415
0.0451777904
0.0328941886
0.0215576106
0.0113676811
0.0024502057
-0.0051428291
-0.0114332558
-0.0165167263
-0.0205627113
-0.0238145009
-0.0265892041
-0.0292777492
-0.0323448799
-0.0363288736
-0.0418413466
-0.0495676880
-0.0602671061
-0.0766155802
-0.1080761488
-0.1481501744
-0.1886372326
-0.2225045646
-0.2438870771
-0.2480873423
-0.2315755981
-0.1919897478
-0.1281353602
-0.0399856698
0.0713184234
0.2034683541
0.3529878911
0.5152331379
0.6843925323
0.8534442583
1.0014281719
1.1032234310
1.1462485861
1.1247616582
1.0398596675
0.8994782160
0.7183922821
0.5182163188
0.3218728313
0.1401088585
-0.0181855599
-0.1468331164
-0.2424379302
-0.3043855468
-0.3348429380
-0.3387584926
-0.3219990142
-0.2905355302
-0.2512717619
-0.2098105804
-0.1704460024
-0.1361631900
-0.1086384505
-0.0882392367
-0.0740241469
-0.0639459602
-0.0568579710
-0.0520366193
-0.0487908411
-0.0465311150
-0.0447688718
-0.0431174808
-0.0412923912
-0.0391111328
-0.0364933156
-0.0334606298
-0.0301368460
-0.0266063439
-0.0227003738
-0.0183719402
-0.0135824738
-0.0082970092
-0.0024841847
0.0038837575
0.0108309715
0.0183780076
0.0265418124
0.0353357286
0.0447694953
0.0548492476
0.0655775171
0.0769532313
0.0889720096
0.1016266790
0.1148801058
0.1286815361
0.1429744530
0.1576966774
0.1727803671
0.1881520172
0.2037324603
0.2194368659
0.2351747409
0.2508499297
0.2663606135
0.2815992722
0.2964524960
0.3108011304
0.3245203584
0.3374797000
0.3495430125
0.3606132964
0.3706123226
0.3794321683
0.3869789476
0.3931728379
0.3979480792
0.4012529747
0.4030498906
0.4033152156
0.4020392962
0.3992265244
0.3948953553
0.3890783070
0.3818219605
0.3731869599
0.3632480123
0.3520938876
0.3398274190
0.3265298802
0.3122539749
0.2971502443
0.2813666180
0.2650436155
0.2483143453
0.2313045056
0.2141323840
0.1969088577
0.1797373931
0.1627140462
0.1459274625
0.1294588768
0.1133821134
0.0977635865
0.0826626084
0.0681319937
0.0542173141
0.0409567311
0.0283809954
0.0165134473
0.0053700164
-0.0050365779
-0.0146510125
-0.0234900442
-0.0315952721
-0.0390070688
-0.0457644136
-0.0519049727
-0.0574652024
-0.0624803506
-0.0669844569
-0.0710103523
-0.0745896596
-0.0777527931
-0.0805289587
-0.0829461537
-0.0850311674
-0.0868095802
-0.0883057645
-0.0895431299
-0.0905446943
-0.0913324372
-0.0919271294
-0.0923483333
-0.0926144032
-0.0927424847
-0.0927485149
-0.0926472228
-0.0924521287
-0.0921755448
-0.0918285745
-0.0914211131
-0.0909618473
-0.0904582556
-0.0899166078
-0.0893419655
-0.0887381818
-0.0881079014
-0.0874526687
-0.0867743514
-0.0860750884
-0.0853568585
-0.0846215197
-0.0838708087
-0.0831065837
-0.0823314909
-0.0815482683
-0.0807595328
-0.0799677803
-0.0791753856
-0.0783846025
-0.0775975638
-0.0768162810
-0.0760426450
-0.0752784252
-0.0745252743
-0.0737848010
-0.0730585608
-0.0723479903
-0.0716544052
-0.0709790001
-0.0703228485
-0.0696869030
-0.0690719950
-0.0684788349
-0.0679080121
-0.0673599949
-0.0668351306
-0.0663336453
-0.0658550005
-0.0653958153
-0.0649518693
-0.0645188206
-0.0640922066
-0.0636674435
-0.0632398266
-0.0628045299
-0.0623986062
-0.0620634092
-0.0617372952
-0.0613575086
-0.0608623672
-0.0601912619
-0.0592846570
-0.0580840899
-0.0565321715
-0.0545725859
-0.0521500904
-0.0492105158
-0.0457007659
-0.0415688180
-0.0367637226
-0.0312356036
-0.0249356578
-0.0178167675
-0.0098358037
-0.0009515791
0.0088760200
0.0196860343
0.0315164312
0.0444041046
0.0583848753
0.0734547324
0.0893758583
0.1058341659
0.1225262231
0.1391593273
0.1554515093
0.1711315193
0.1859388262
0.1996236172
0.2119467982
0.2226799935
0.2316055457
0.2385165163
0.2432166848
0.2455205497
0.2452531848
0.2422848201
0.2367795430
0.2289997919
0.2192076007
0.2076638116
0.1946280743
0.1803588459
0.1651133912
0.1491477823
0.1327168989
0.1160744282
0.0994728651
0.0831635116
0.0673964775
0.0524206802
0.0384761800
0.0255040685
0.0135430828
0.0027311858
-0.0068450237
-0.0151503116
-0.0222008081
-0.0280640078
-0.0328587697
-0.0367553174
-0.0399752388
-0.0427918006
-0.0455315485
-0.0485731133
-0.0523464915
-0.0573330439
-0.0644239140
-0.0839452548
-0.1153996234
-0.1525080702
-0.1896722367
-0.2219743555
-0.2451772494
-0.2557242902
-0.2507393503
-0.2280268822
-0.1860719290
-0.1240401250
-0.0417776952
0.0601885442
0.1806511863
0.3177222332
0.4688330959
0.6307345946
0.7994969587
0.9639377756
1.0926585981
1.1642535757
1.1662453105
1.0946994415
0.9562084573
0.7751484241
0.5778393130
0.3863612423
0.2185686920
0.0860452443
-0.0081789353
-0.0645487032
-0.0862010674
-0.0789651881
-0.0513623770
-0.0134338786
0.0272805382
0.0650534078
0.0962097152
0.1191412722
0.1343067168
0.1440480128
0.1501690669
0.1538628670
0.1561694710
0.1578830430
0.1595524271
0.1614808008
0.1637253654
0.1661982706
0.1690357650
0.1722971168
0.1760288573
0.1802761129
0.1850826050
0.1904906501
0.1965411596
0.2032735727
0.2107152581
0.2188867352
0.2278202987
0.2375356288
0.2480393430
0.2593249970
0.2713730840
0.2841510350
0.2976132188
0.3117009419
0.3263424485
0.3414529208
0.3569343605
0.3726746493
0.3885480486
0.4044157528
0.4201258939
0.4355135416
0.4504007035
0.4645963248
0.4779280647
0.4903087387
0.5015644799
0.5115320489
0.5200698860
0.5270581105
0.5323985215
0.5360145970
0.5378514947
0.5378760514
0.5360767836
0.5324638867
0.5270692358
0.5199463852
0.5111705688
0.5008386994
0.4890693695
0.4760029034
0.4618018422
0.4466507233
0.4307557671
0.4143292492
0.3974518095
0.3802770221
0.3629775537
0.3457122308
0.3286260393
0.3118501249
0.2955017929
0.2796845484
0.2644882772
0.2499891008
0.2362493004
0.2233173170
0.2112277511
0.2000013629
0.1896450723
0.1801519588
0.1715012616
0.1636583795
0.1565748709
0.1501906463
0.1444992123
0.1394705881
0.1350503681
0.1311866303
0.1278299341
0.1249333207
0.1224523129
0.1203449153
0.1185716141
0.1170953772
0.1158816542
0.1148983763
0.1141159566
0.1135072897
0.1130477519
0.1127152012
0.1124899774
0.1123549017
0.1122952773
0.1122988890
0.1123560030
0.1124593677
0.1126042127
0.1127882496
0.1130105141
0.1132586731
0.1135270586
0.1138129716
0.1141138041
0.1144270525
0.1147503177
0.1150813057
0.1154178267
0.1157577957
0.1160992325
0.1164402612
0.1167791109
0.1171141093
0.1174436349
0.1177661415
0.1180801873
0.1183844349
0.1186776517
0.1189587098
0.1192265858
0.1194803610
0.1197192215
0.1199424576
0.1201494648
0.1203397428
0.1205129990
0.1206751491
0.1208459235
0.1210162414
0.1211784474
0.1213308986
0.1214779644
0.1216300267
0.1218034801
0.1220207314
0.1223101999
0.1227063175
0.1232495285
0.1239862895
0.1249690698
0.1262563511
0.1279126275
0.1299967280
0.1324631933
0.1354942738
0.1393110129
0.1440958621
0.1499926817
0.1571067403
0.1655047150
0.1752145997
0.1862240449
0.1984805347
0.2118929058
0.2263314033
0.2416276807
0.2575748001
0.2739272320
0.2904019191
0.3067636384
0.3225228433
0.3371106976
0.3500400686
0.3609054873
0.3693831544
0.3752309758
0.3782885631
0.3784772341
0.3758000126
0.3703416283
0.3622685169
0.3518288200
0.3393523855
0.3252353430
0.3098234706
0.2935862430
0.2769803847
0.2604100039
0.2442257509
0.2287247803
0.2141507507
0.2006938247
0.1884906692
0.1776244551
0.1681248573
0.1599680550
0.1530767314
0.1473200737
0.1425285803
0.1385838036
0.1352831796
0.1322553895
0.1289598267
0.1246865971
0.1185565191
0.1095211235
0.0963626537
0.0778856662
0.0547366137
0.0293760497
0.0056123264
-0.0113830288
-0.0150753518
0.0016687939
0.0452716458
0.1224104046
0.2352624201
0.3811838349
0.5527095838
0.7386371851
0.9164068036
1.0542505334
1.1300245511
1.1319937434
1.0588317073
0.9196544254
0.7365643848
0.5386455770
0.3494383262
0.1859130996
0.0584705079
-0.0290580850
-0.0752148072
-0.0860193779
-0.0722866837
-0.0432700817
-0.0066607106
0.0314126732
0.0663828752
0.0952442102
0.1165525015
0.1305478298
0.1395340935
0.1451562233
0.1486262220
0.1509298335
0.1528265429
0.1548495768
0.1573059027
0.1602762297
0.1636150079
0.1671920689
0.1712276098
0.1757762250
0.1808855737
0.1866004956
0.1929630109
0.2000123206
0.2077848058
0.2163140285
0.2256365768
0.2357899225
0.2467654920
0.2585405592
0.2710814549
0.2843435673
0.2982713410
0.3127982782
0.3278469377
0.3433289356
0.3591449448
0.3751846953
0.3913269744
0.4074396424
0.4233796503
0.4389930095
0.4541147888
0.4685691138
0.4821691672
0.4947171888
0.5060044752
0.5158165791
0.5240225421
0.5305443444
0.5353152521
0.5382854558
0.5394249677
0.5387251564
0.5361946385
0.5318589036
0.5257603139
0.5179581043
0.5085283822
0.4975641280
0.4851751946
0.4714883076
0.4566470653
0.4408119387
0.4241602715
0.4068862802
0.3892010536
0.3713325538
0.3535256149
0.3360174873
0.3188661027
0.3021602442
0.2859991667
0.2704714898
0.2556551973
0.2416176378
0.2284154796
0.2160913064
0.2046712280
0.1941701540
0.1845923587
0.1759314808
0.1681705236
0.1612818549
0.1552272072
0.1499576772
0.1454137265
0.1415251810
0.1382112311
0.1353804636
0.1329833731
0.1310089694
0.1294097593
0.1281405655
0.1271585657
0.1264232916
0.1258966299
0.1255428216
0.1253284625
0.1252225028
0.1251962473
0.1252233819
0.1252828342
0.1253613359
0.1254485781
0.1255366062
0.1256198202
0.1256949749
0.1257611795
0.1258198976
0.1258749477
0.1259325027
0.1259951409
0.1260575916
0.1261217457
0.1261898490
0.1262643248
0.1263477741
0.1264429758
0.1265528864
0.1266806402
0.1268295492
0.1270031031
0.1272049694
0.1274389932
0.1277091974
0.1280197688
0.1283727568
0.1287655094
0.1291949343
0.1296581166
0.1301523195
0.1306749836
0.1312237275
0.1317963473
0.1323908170
0.1330052883
0.1336380905
0.1342877307
0.1349528438
0.1356319793
0.1363237418
0.1370308686
0.1377678600
0.1385571656
0.1394285582
0.1404191335
0.1415733109
0.1429428325
0.1445867637
0.1465714933
0.1489707413
0.1518678348
0.1553588102
0.1595478034
0.1645462731
0.1704730015
0.1774540938
0.1856229783
0.1951659708
0.2063155657
0.2188667776
0.2325581172
0.2471216385
0.2622829388
0.2777611587
0.2932689824
0.3085126370
0.3231918932
0.3370000650
0.3496240098
0.3607441281
0.3700343638
0.3771622044
0.3817886805
0.3835683659
0.3821481760
0.3772926135
0.3694085552
0.3590368848
0.3466828741
0.3328161836
0.3178708625
0.3022453484
0.2863024675
0.2703694346
0.2547378530
0.2396637146
0.2253673998
0.2120337047
0.1998120521
0.1888163773
0.1791250054
0.1707806501
0.1639564202
0.1599169205
0.1576668938
0.1558294450
0.1532633959
0.1490632853
0.1425593695
0.1333176228
0.1211413202
0.1060741566
0.0883964128
0.0686240870
0.0475088945
0.0260382676
0.0054353557
-0.0119149478
-0.0154701769
0.0063797251
0.0610362235
0.1516631656
0.2771867809
0.4322956814
0.6074408610
0.7887916346
0.9531199503
1.0702124662
1.1198204947
1.0933602791
0.9939129937
0.8362247435
0.6465439858
0.4486676987
0.2583483700
0.0895753622
-0.0480648855
-0.1493874231
-0.2136084120
-0.2442948482
-0.2455360941
-0.2248765443
-0.1910811309
-0.1513519348
-0.1113281847
-0.0750862577
-0.0451396792
-0.0224391297
-0.0063587550
0.0052566936
0.0136485877
0.0195351945
0.0235635819
0.0263096187
0.0282779742
0.0299021187
0.0315443229
0.0334956584
0.0359759974
0.0391340129
0.0430467600
0.0477185183
0.0530819966
0.0589987049
0.0652589535
0.0718503800
0.0790289655
0.0868389073
0.0953137047
0.1044771819
0.1143434883
0.1249170980
0.1361928101
0.1481557488
0.1607813632
0.1740354274
0.1878740404
0.2022436263
0.2170809341
0.2323130377
0.2478573361
0.2636332612
0.2796285219
0.2956866771
0.3116237062
0.3272662693
0.3424552454
0.3570423335
0.3708888232
0.3838655950
0.3958531202
0.4067414608
0.4164302699
0.4248287910
0.4318558589
0.4374398987
0.4415189268
0.4440405514
0.4449620208
0.4442502345
0.4418816869
0.4378424628
0.4320514303
0.4244546855
0.4152353915
0.4045762996
0.3926535908
0.3796368758
0.3656891949
0.3509670181
0.3356190163
0.3197814001
0.3035820479
0.2871422672
0.2705767954
0.2539937995
0.2374948763
0.2211750523
0.2051227836
0.1894199560
0.1741418851
0.1593573162
0.1451284242
0.1315108138
0.1185535194
0.1062990050
0.0947831644
0.0840353211
0.0740782283
0.0649280688
0.0565893312
0.0490232642
0.0421761655
0.0359959171
0.0304319961
0.0254363064
0.0209668509
0.0169847439
0.0134526956
0.0103350112
0.0075975905
0.0052079284
0.0031351145
0.0013498332
-0.0001756361
-0.0014674193
-0.0025500473
-0.0034464567
-0.0041780410
-0.0047646979
-0.0052247417
-0.0055748916
-0.0058302723
-0.0060044132
-0.0061092494
-0.0061551207
-0.0061507722
-0.0061033674
-0.0060190616
-0.0058997110
-0.0057457242
-0.0055593380
-0.0053434042
-0.0051006529
-0.0048336910
-0.0045450020
-0.0042369465
-0.0039117616
-0.0035715616
-0.0032183373
-0.0028539564
-0.0024801634
-0.0020985797
-0.0017107035
-0.0013179097
-0.0009214501
-0.0005224532
-0.0001219246
0.0002792536
0.0006803224
0.0010806458
0.0014797113
0.0018771293
0.0022726336
0.0026660811
0.0030573725
0.0034459811
0.0038312701
0.0042143272
0.0046117721
0.0050155765
0.0054131091
0.0057958094
0.0061591876
0.0065028245
0.0068303715
0.0071495508
0.0074721552
0.0078140836
0.0081954150
0.0086403192
0.0091770370
0.0098378799
0.0106592298
0.0116815396
0.0129493325
0.0145112027
0.0163377884
0.0184379200
0.0210210224
0.0242708220
0.0283446754
0.0333717310
0.0394512791
0.0466527420
0.0550156738
0.0645497606
0.0752348203
0.0870208029
0.0998277902
0.1135459961
0.1280357661
0.1431275778
0.1586220409
0.1742898968
0.1898793893
0.2051164153
0.2195433272
0.2327231760
0.2442808435
0.2539030420
0.2613383146
0.2663970349
0.2689514071
0.2689354660
0.2663444071
0.2612292165
0.2536995110
0.2439252340
0.2320738609
0.2185091828
0.2036593512
0.1879199596
0.1716540433
0.1551920799
0.1388319889
0.1228391321
0.1074463130
0.0928537922
0.0792293472
0.0667082203
0.0553930962
0.0455727620
0.0373936577
0.0305369571
0.0246830677
0.0195150559
0.0147186472
0.0099822255
0.0049968338
-0.0005432672
-0.0069353771
-0.0144707217
-0.0234378236
-0.0341225468
-0.0468080961
-0.0617750178
-0.0793011994
-0.0996618693
-0.1231295972
-0.1479459129
-0.1659041424
-0.1693840122
-0.1522277345
-0.1097197473
-0.0385867148
0.0630024731
0.1954367004
0.3589565330
0.5471653280
0.7327240572
0.8915181992
1.0051205749
1.0607913483
1.0514780256
0.9758151958
0.8384601443
0.6583868257
0.4606586893
0.2655006356
0.0886124816
-0.0588310393
-0.1701802771
-0.2433106654
-0.2806227213
-0.2886880710
-0.2728259328
-0.2410546813
-0.2013398493
-0.1600372361
-0.1218927402
-0.0900421947
-0.0660113667
-0.0497159569
-0.0394615998
-0.0322925115
-0.0272207705
-0.0237186196
-0.0211930017
-0.0191524951
-0.0172072393
-0.0150679865
-0.0125463758
-0.0095556644
-0.0061107450
-0.0023273085
0.0017939869
0.0063765252
0.0114695654
0.0171168907
0.0233568084
0.0302221504
0.0377402726
0.0459330554
0.0548169031
0.0644027448
0.0746960334
0.0856967463
0.0973993851
0.1097929758
0.1228789028
0.1366955365
0.1511486380
0.1661263239
0.1815159882
0.1972042560
0.2130762769
0.2290158662
0.2449060986
0.2606293264
0.2760671789
0.2911005630
0.3056096628
0.3194739397
0.3325721325
0.3447822572
0.3559816074
0.3660467538
0.3748535730
0.3822776486
0.3881941736
0.3924776267
0.3950025570
0.3957116507
0.3946460717
0.3918593345
0.3874113268
0.3813683097
0.3738029174
0.3647941576
0.3544274603
0.3427955778
0.3299984926
0.3161425910
0.3013406324
0.2857117498
0.2693814492
0.2524816102
0.2351504852
0.2175327003
0.1997792547
0.1820475208
0.1645012443
0.1473105443
0.1306372085
0.1145230777
0.0990097016
0.0841431163
0.0699629995
0.0565026708
0.0437890914
0.0318428642
0.0206782337
0.0103030862
0.0007189496
-0.0080790205
-0.0161023527
-0.0233692602
-0.0299043287
-0.0357385023
-0.0409090835
-0.0454597329
-0.0494404695
-0.0529076707
-0.0559240722
-0.0585554973
-0.0608157218
-0.0627246753
-0.0643135083
-0.0656120351
-0.0666487985
-0.0674506781
-0.0680428665
-0.0684488693
-0.0686905046
-0.0687879036
-0.0687595102
-0.0686220812
-0.0683906863
-0.0680787078
-0.0676978590
-0.0672586662
-0.0667705254
-0.0662411748
-0.0656766652
-0.0650813602
-0.0644579365
-0.0638073834
-0.0631290032
-0.0624208965
-0.0616854102
-0.0609279498
-0.0601536419
-0.0593672768
-0.0585733086
-0.0577758549
-0.0569786971
-0.0561852802
-0.0553987128
-0.0546217675
-0.0538568802
-0.0531061507
-0.0523713424
-0.0516538823
-0.0509548613
-0.0502750249
-0.0496144711
-0.0489725772
-0.0483483604
-0.0477405014
-0.0471473448
-0.0465668987
-0.0459968350
-0.0454344893
-0.0448768607
-0.0443206122
-0.0437620702
-0.0431972251
-0.0426217285
-0.0420306751
-0.0414184184
-0.0407789323
-0.0401058544
-0.0393924858
-0.0386317915
-0.0378736229
-0.0371203450
-0.0362557845
-0.0351698609
-0.0337592510
-0.0319273884
-0.0295844306
-0.0266472470
-0.0230394611
-0.0186914536
-0.0135403628
-0.0075300842
-0.0006112708
0.0072586670
0.0161155615
0.0259884875
0.0368997626
0.0488649468
0.0618928428
0.0759854960
0.0911432954
0.1071005306
0.1234233441
0.1397036324
0.1555600425
0.1706379717
0.1846095676
0.1971737285
0.2080561028
0.2170090894
0.2238118532
0.2282711982
0.2302220362
0.2295261440
0.2260720485
0.2197765709
0.2108542599
0.1997174492
0.1867612821
0.1723617206
0.1568755458
0.1406403576
0.1239745750
0.1071774355
0.0905288833
0.0742893535
0.0587000413
0.0439829605
0.0303409438
0.0179576429
0.0068411286
-0.0031648451
-0.0119365376
-0.0194173177
-0.0256284012
-0.0306688766
-0.0347177025
-0.0380351248
-0.0409595711
-0.0439073156
-0.0473724795
-0.0519270309
-0.0582207845
-0.0669814022
-0.0790143926
-0.0952031111
-0.1165086324
-0.1425232351
-0.1680474833
-0.1871592920
-0.1943002385
-0.1842755632
-0.1522541694
-0.0937686230
-0.0047151529
0.1189541210
0.2757309731
0.4520924350
0.6325460936
0.8005293291
0.9384093305
1.0274848705
1.0481194031
0.9939800925
0.8740407285
0.7038007808
0.5080978908
0.3137360054
0.1410100091
0.0029935595
-0.0948063727
-0.1535184680
-0.1767187771
-0.1702472915
-0.1422079053
-0.1029664812
-0.0626703083
-0.0261490457
0.0038163970
0.0259123133
0.0402921994
0.0485767543
0.0536697343
0.0571119013
0.0595057004
0.0614258567
0.0633087520
0.0654516653
0.0680140290
0.0710176114
0.0743884480
0.0782144152
0.0825660478
0.0874961045
0.0930521098
0.0992763545
0.1062058951
0.1138725542
0.1223029203
0.1315183481
0.1415349579
0.1523636362
0.1641559149
0.1770238698
0.1908063946
0.2053434563
0.2204780641
0.2360562694
0.2519271662
0.2679428909
0.2839586219
0.2998325510
0.3154258437
0.3306026976
0.3452303527
0.3591790915
0.3723222388
0.3845361618
0.3957002700
0.4056970153
0.4144118919
0.4217334365
0.4275532282
0.4317658881
0.4342690786
0.4349634918
0.4337528564
0.4305439433
0.4252230065
0.4178694518
0.4087130607
0.3979748351
0.3858664646
0.3725903257
0.3583394828
0.3432976874
0.3276393774
0.3115296745
0.2951243875
0.2785700124
0.2620037326
0.2455534193
0.2293376306
0.2134656125
0.1980372979
0.1831433077
0.1688649497
0.1552742194
0.1424337997
0.1303970608
0.1192080605
0.1089015439
0.0995029435
0.0910256295
0.0834349081
0.0766685267
0.0706661420
0.0653697272
0.0607235720
0.0566742829
0.0531707830
0.0501647428
0.0476114344
0.0454686851
0.0436966390
0.0422577566
0.0411168148
0.0402409074
0.0395994446
0.0391641530
0.0389090761
0.0388105736
0.0388473221
0.0390003145
0.0392528533
0.0395904596
0.0400008984
0.0404742492
0.0410021199
0.0415773790
0.0421982462
0.0428635039
0.0435720953
0.0443231248
0.0451158576
0.0459497201
0.0468233758
0.0477325464
0.0486724640
0.0496385217
0.0506262737
0.0516314352
0.0526498823
0.0536776523
0.0547109435
0.0557461152
0.0567796879
0.0578083428
0.0588289224
0.0598384302
0.0608340308
0.0618130496
0.0627729733
0.0637114494
0.0646262867
0.0655240453
0.0664237948
0.0673045926
0.0681481774
0.0689428564
0.0696835050
0.0703726121
0.0710231924
0.0716557650
0.0722974174
0.0729818053
0.0737491530
0.0746462527
0.0757264652
0.0770497195
0.0786825130
0.0806979111
0.0831755479
0.0861334360
0.0896711394
0.0940286251
0.0994015635
0.1059399325
0.1137480087
0.1228843675
0.1333618831
0.1451477285
0.1581633751
0.1722845935
0.1873414528
0.2031183210
0.2193531993
0.2357370645
0.2520297239
0.2677119494
0.2821720185
0.2948892612
0.3054340606
0.3134678527
0.3187431263
0.3211034228
0.3204833368
0.3169085157
0.3104956594
0.3014525212
0.2900779068
0.2767616750
0.2619753327
0.2461171738
0.2296535722
0.2130430317
0.1966852635
0.1809211858
0.1660329240
0.1522438107
0.1397183856
0.1285626616
0.1188251389
0.1104959103
0.1035062757
0.0977287419
0.0929771231
0.0890672316
0.0858106209
0.0828226555
0.0795088036
0.0750646369
0.0684758312
0.0585181657
0.0437616972
0.0234621681
-0.0007674430
-0.0257701191
-0.0470059719
-0.0585522426
-0.0531033014
-0.0228706832
0.0377309354
0.1353517179
0.2704162353
0.4362996032
0.6193273696
0.7987750137
0.9472270071
1.0381823745
1.0559608873
0.9965280856
0.8674853473
0.6880698874
0.4889839618
0.2975908283
0.1281052530
-0.0088093104
-0.1072134017
-0.1658915543
-0.1883522957
-0.1820646898
-0.1547146811
-0.1161150832
-0.0743982034
-0.0355146403
-0.0032332831
0.0208586878
0.0373558011
0.0485867316
0.0560776686
0.0609806997
0.0642826020
0.0667820304
0.0690895337
0.0716275546
0.0746304296
0.0781443892
0.0820275579
0.0861434577
0.0906991886
0.0957532947
0.1013532116
0.1075417103
0.1143568976
0.1218323106
0.1299970855
0.1388757389
0.1484881233
0.1588494266
0.1699703354
0.1819883349
0.1949345618
0.2086848411
0.2231149425
0.2381005797
0.2535175864
0.2692429661
0.2851541889
0.3011286708
0.3170437723
0.3327767981
0.3482049973
0.3632055630
0.3776556329
0.3914322888
0.4044125568
0.4164734074
0.4274917552
0.4373444591
0.4459083225
0.4530600928
0.4586764619
0.4626340659
0.4648094850
0.4650792441
0.4632769187
0.4593350809
0.4534435967
0.4457951561
0.4365762623
0.4259670541
0.4141400697
0.4012609872
0.3874892936
0.3729782893
0.3578750883
0.3423206176
0.3264496178
0.3103906428
0.2942660597
0.2781920492
0.2622786050
0.2466295346
0.2313424584
0.2165087464
0.2022132925
0.1885347224
0.1755454753
0.1633118035
0.1518937730
0.1413452628
0.1317139655
0.1230336548
0.1152636747
0.1083420407
0.1022107260
0.0968132096
0.0920947221
0.0880025231
0.0844859036
0.0814961865
0.0789867259
0.0769129076
0.0752321488
0.0739038984
0.0728896369
0.0721528760
0.0716591594
0.0713760620
0.0712731904
0.0713221827
0.0714967084
0.0717724689
0.0721271969
0.0725406565
0.0729946437
0.0734729857
0.0739615416
0.0744482016
0.0749227393
0.0753763863
0.0758072098
0.0762158917
0.0766032775
0.0769703536
0.0773182468
0.0776482246
0.0779616954
0.0782602081
0.0785454523
0.0788192583
0.0790835972
0.0793405805
0.0795924607
0.0798416684
0.0800910580
0.0803437522
0.0806030155
0.0808722526
0.0811550094
0.0814549720
0.0817759675
0.0821219635
0.0824970684
0.0829055313
0.0833514519
0.0838477344
0.0844082662
0.0850126355
0.0856445418
0.0862931072
0.0869528768
0.0876238181
0.0883113217
0.0890262008
0.0897846914
0.0906084523
0.0915245650
0.0925655337
0.0937692857
0.0951791705
0.0968439609
0.0988178522
0.1011604625
0.1039321810
0.1070980544
0.1108182990
0.1153105810
0.1207524729
0.1272814535
0.1349950719
0.1439530758
0.1541768030
0.1656475367
0.1783064664
0.1920546878
0.2067532028
0.2222229197
0.2382446532
0.2545591239
0.2708820527
0.2869744664
0.3022878287
0.3162713431
0.3284567655
0.3384582411
0.3459723555
0.3507782581
0.3527376640
0.3517948547
0.3479766775
0.3413925458
0.3322344393
0.3207769036
0.3073770502
0.2924744768
0.2765633476
0.2600022708
0.2431999270
0.2265403704
0.2103557804
0.1949264612
0.1804808416
0.1671954757
0.1551950420
0.1445523442
0.1352883107
0.1273719948
0.1207205748
0.1151993536
0.1106217591
0.1067737263
0.1034507784
0.1002627831
0.0966053283
0.0916610583
0.0843996740
0.0735779329
0.0579461419
0.0373005893
0.0128777061
-0.0125849556
-0.0348474307
-0.0481687986
-0.0453072383
-0.0205366236
0.0336308462
0.1238394068
0.2508145494
0.4093629798
0.5883726192
0.7708126036
0.9334779177
1.0493504158
1.0996626745
1.0761813269
0.9810778131
0.8269283271
0.6367138143
0.4386898893
0.2461332425
0.0717812639
-0.0748337085
-0.1879566417
-0.2656098076
-0.3095928989
-0.3235739667
-0.3126067978
-0.2849970021
-0.2478600275
-0.2070380597
-0.1671000214
-0.1313415730
-0.1017851121
-0.0791797740
-0.0627901752
-0.0510558536
-0.0428779119
-0.0372924904
-0.0334641219
-0.0306857314
-0.0283786360
-0.0260925454
-0.0235055613
-0.0204241779
-0.0167832816
-0.0126461511
-0.0082044574
-0.0036944215
0.0011225130
0.0063447463
0.0120144730
0.0181729047
0.0248567422
0.0320979795
0.0399239039
0.0483570957
0.0574154284
0.0671120687
0.0774554765
0.0884494049
0.1000928999
0.1123803011
0.1253029060
0.1389190081
0.1531901739
0.1680151424
0.1832926760
0.1989215589
0.2148005964
0.2308286159
0.2469044661
0.2629270172
0.2787951611
0.2944078114
0.3096638134
0.3244588824
0.3386848443
0.3522333022
0.3649958813
0.3768642279
0.3877300102
0.3974849179
0.4060206621
0.4132289757
0.4190016130
0.4232303500
0.4258058634
0.4266530595
0.4258117395
0.4233423461
0.4193092036
0.4137805179
0.4068283762
0.3985287473
0.3889614817
0.3782103111
0.3663628490
0.3535105901
0.3397489109
0.3251771146
0.3099004074
0.2940306654
0.2776838496
0.2609798027
0.2440422488
0.2269987936
0.2099809240
0.1931240089
0.1765672984
0.1604539241
0.1449172347
0.1299829851
0.1156737277
0.1020160002
0.0890320284
0.0767396281
0.0651523376
0.0542794435
0.0441259809
0.0346927333
0.0259762326
0.0179687591
0.0106583417
0.0040287574
-0.0019404834
-0.0072750143
-0.0120060892
-0.0161693296
-0.0198046088
-0.0229560513
-0.0256720335
-0.0280051834
-0.0300123803
-0.0317506163
-0.0332266512
-0.0344567504
-0.0354661189
-0.0362787032
-0.0369171911
-0.0374030116
-0.0377563351
-0.0379960733
-0.0381398792
-0.0382041471
-0.0382040125
-0.0381533525
-0.0380647852
-0.0379496702
-0.0378181083
-0.0376789284
-0.0375386487
-0.0374007315
-0.0372672050
-0.0371388382
-0.0370151420
-0.0368943681
-0.0367735098
-0.0366483016
-0.0365124472
-0.0363619093
-0.0361988418
-0.0360252936
-0.0358429618
-0.0356531921
-0.0354568915
-0.0352542448
-0.0350449852
-0.0348284944
-0.0346038022
-0.0343695867
-0.0341241745
-0.0338655403
-0.0335913071
-0.0332987461
-0.0329847920
-0.0326477278
-0.0322887233
-0.0319089594
-0.0315092658
-0.0310901203
-0.0306516488
-0.0301936258
-0.0297154737
-0.0292162636
-0.0286947147
-0.0281491942
-0.0275777181
-0.0269779504
-0.0263472032
-0.0256824373
-0.0249802614
-0.0242369328
-0.0234483568
-0.0226100872
-0.0217173259
-0.0207763101
-0.0197749603
-0.0186396268
-0.0172960817
-0.0156718321
-0.0136946049
-0.0112906286
-0.0083874604
-0.0049144014
-0.0008024967
0.0040154645
0.0096049491
0.0160296801
0.0233516363
0.0316310527
0.0409264203
0.0512944859
0.0627902525
0.0755208343
0.0895313450
0.1045246195
0.1201941480
0.1362429046
0.1523833484
0.1683374228
0.1838365563
0.1986216619
0.2124431375
0.2250608655
0.2362442101
0.2457711101
0.2534268221
0.2590057721
0.2623118707
0.2631585133
0.2613685801
0.2567744561
0.2494663572
0.2398314946
0.2282502803
0.2150824340
0.2006669829
0.1853222620
0.1693459138
0.1530148885
0.1365854440
0.1202931457
0.1043528668
0.0889587879
0.0742843976
0.0604824917
0.0476851741
0.0360038559
0.0255292562
0.0162492003
0.0079057498
0.0005815115
-0.0056795411
-0.0109207000
-0.0152725234
-0.0189528354
-0.0222667262
-0.0256065518
-0.0294519342
-0.0343697613
-0.0410141872
-0.0501266317
-0.0625357805
-0.0791575857
-0.1021022046
-0.1365946213
-0.1742199628
-0.2057024077
-0.2234275283
-0.2214422907
-0.1954550545
-0.1428355729
-0.0626149928
0.0445141452
0.1761979066
0.3284204985
0.4955033405
0.6701061983
0.8390088437
0.9465941778
0.9873799931
0.9724430212
0.9122859667
0.8168375071
0.6954522926
0.5569109467
0.4094200655
0.2606122183
0.1175459472
-0.0132942329
-0.1259978339
-0.2152283949
-0.2762234821
-0.3047946888
-0.3004186568
-0.2765090422
-0.2411284234
-0.2003185272
-0.1589818507
-0.1208816610
-0.0886417102
-0.0637455590
-0.0465373353
-0.0362219372
-0.0308650329
-0.0273930606
-0.0240173071
-0.0214261482
-0.0193130991
-0.0174160852
-0.0155177160
-0.0134452851
-0.0110707701
-0.0083108329
-0.0051268335
-0.0015251720
0.0024466241
0.0068188146
0.0116596054
0.0170145731
0.0229234716
0.0294202328
0.0365329660
0.0442839582
0.0526896741
0.0617607727
0.0715021540
0.0819129108
0.0929863135
0.1047098102
0.1170650266
0.1300277660
0.1435680095
0.1576530150
0.1723681213
0.1876532119
0.2033544460
0.2193234189
0.2354171621
0.2514981431
0.2674342659
0.2830988705
0.2983707331
0.3131340660
0.3272785179
0.3406991735
0.3532965537
0.3649766158
0.3756507529
0.3852357947
0.3936538219
0.4008315582
0.4067009506
0.4111993824
0.4142696732
0.4158600786
0.4159242905
0.4144214367
0.4113160817
0.4065725289
0.4000877072
0.3919567799
0.3823404663
0.3713939857
0.3592670600
0.3461041183
0.3320444212
0.3172217588
0.3017644210
0.2857951974
0.2694313774
0.2527847499
0.2359616038
0.2190627276
0.2021834093
0.1854135075
0.1688377208
0.1525353507
0.1365801983
0.1210405646
0.1059792502
0.0914535553
0.0775152802
0.0642107244
0.0515806877
0.0396604692
0.0284798678
0.0180631823
0.0084293032
-0.0004195974
-0.0085209496
-0.0159178672
-0.0226521926
-0.0287644964
-0.0342940778
-0.0392789643
-0.0437559119
-0.0477604052
-0.0513266570
-0.0544876086
-0.0572748078
-0.0597178633
-0.0618448853
-0.0636827123
-0.0652569114
-0.0665917778
-0.0677103355
-0.0686343366
-0.0693842619
-0.0699793206
-0.0704374501
-0.0707753166
-0.0710083144
-0.0711505665
-0.0712149244
-0.0712130757
-0.0711557064
-0.0710522787
-0.0709098563
-0.0707310633
-0.0705176821
-0.0702713824
-0.0699937218
-0.0696861451
-0.0693499847
-0.0689865077
-0.0685971609
-0.0681833899
-0.0677465282
-0.0672877967
-0.0668083038
-0.0663090456
-0.0657909054
-0.0652546542
-0.0647009504
-0.0641303400
-0.0635432563
-0.0629400203
-0.0623208405
-0.0616858127
-0.0610349204
-0.0603680345
-0.0596849133
-0.0589852030
-0.0582684367
-0.0575340356
-0.0567813079
-0.0560094496
-0.0552175440
-0.0544045622
-0.0535696480
-0.0527053955
-0.0518002296
-0.0508697343
-0.0499272245
-0.0489823579
-0.0480411359
-0.0471059030
-0.0461753470
-0.0452444991
-0.0443047335
-0.0433437680
-0.0423456635
-0.0412908243
-0.0401559980
-0.0389142122
-0.0375345811
-0.0359824964
-0.0342196930
-0.0322042492
-0.0298905866
-0.0272426824
-0.0243082813
-0.0209471070
-0.0169929425
-0.0123047888
-0.0067638000
-0.0002751092
0.0072305041
0.0157966034
0.0254410954
0.0361562297
0.0479085992
0.0606391399
0.0742631308
0.0886701939
0.1037242946
0.1192637412
0.1351011850
0.1510238836
0.1668221422
0.1821339370
0.1965553460
0.2097285133
0.2213416500
0.2311290335
0.2388710078
0.2443939833
0.2475704373
0.2483189133
0.2466037488
0.2424328611
0.2358589045
0.2269526942
0.2159444027
0.2031850591
0.1890116361
0.1737465008
0.1576974155
0.1411575367
0.1244054160
0.1077049997
0.0913056287
0.0754420387
0.0603343601
0.0461880828
0.0330742442
0.0209149718
0.0098844576
0.0001070442
-0.0083554650
-0.0155038049
-0.0214012493
-0.0261736106
-0.0300092399
-0.0331589420
-0.0359351698
-0.0387123839
-0.0419275766
-0.0460802790
-0.0517325606
-0.0595090301
-0.0771386689
-0.1086342734
-0.1466929056
-0.1848229894
-0.2173741296
-0.2395371117
-0.2473439019
-0.2376676471
-0.2082226751
-0.1575644942
-0.0850897936
0.0089635568
0.1235165064
0.2566488239
0.4055990972
0.5667647335
0.7357019592
0.9027203328
1.0367864324
1.1182391119
1.1356554622
1.0929836657
0.9656391857
0.7618255771
0.5611870818
0.3644903693
0.1845429371
0.0344258568
-0.0788714297
-0.1549138667
-0.1956738403
-0.2051650472
-0.1894424945
-0.1566024795
-0.1165028947
-0.0763654581
-0.0400726942
-0.0101623955
0.0121762929
0.0271028732
0.0361254948
0.0419211210
0.0458818778
0.0486077510
0.0506817474
0.0525597878
0.0545703002
0.0569142102
0.0596649408
0.0627685733
0.0662105688
0.0700954608
0.0744727824
0.0793881278
0.0848831522
0.0909955717
0.0977591633
0.1052037653
0.1133552767
0.1222356574
0.1318629287
0.1422511724
0.1534808247
0.1656538945
0.1786709250
0.1924252579
0.2068093667
0.2217148572
0.2370324069
0.2526508355
0.2684572827
0.2843379963
0.3001783563
0.3158628744
0.3312751946
0.3462980927
0.3608134766
0.3747023862
0.3878449935
0.4001206023
0.4114076485
0.4215837002
0.4305254573
0.4381087399
0.4442082294
0.4486974700
0.4514491262
0.4523349944
0.4511498296
0.4478279871
0.4425530415
0.4355052540
0.4268590313
0.4167829792
0.4054408927
0.3929916626
0.3795883602
0.3653782021
0.3505025508
0.3350969143
0.3192909461
0.3032084454
0.2869673570
0.2706797715
