ECG
1.1182574410
1.0518549789
0.8811972438
0.6427148267
0.3781242046
0.1304791968
-0.0743962482
-0.2239242667
-0.3136523103
-0.3472458695
-0.3363900955
-0.2959932804
-0.2416960398
-0.1865103629
-0.1390894320
-0.1037276226
-0.0803605033
-0.0649721493
-0.0544840224
-0.0470446294
-0.0410562675
-0.0353023962
-0.0289476366
-0.0215377720
-0.0129997473
-0.0035898525
0.0068074260
0.0183383344
0.0310546121
0.0449830129
0.0601253054
0.0764582724
0.0939337115
0.1124784348
0.1319942691
0.1523580556
0.1734393515
0.1951755211
0.2172783843
0.2394239426
0.2613019737
0.2826160315
0.3030834462
0.3224353243
0.3404165484
0.3567857774
0.3713154463
0.3837917664
0.3940147254
0.4017980871
0.4069693913
0.4093701704
0.4086542260
0.4046701652
0.3977193649
0.3880975662
0.3760922023
0.3619823992
0.3460389750
0.3285244401
0.3096929974
0.2897905421
0.2690546617
0.2477146362
0.2259914379
0.2040977313
0.1822378734
0.1606079137
0.1393955936
0.1187803474
0.0989333014
0.0800172744
0.0621867775
0.0455880141
0.0303588800
0.0166006970
0.0042621329
-0.0067514443
-0.0165312281
-0.0251651679
-0.0327379699
-0.0393310964
-0.0450227665
-0.0498879555
-0.0539983952
-0.0574225737
-0.0602257358
-0.0624698824
-0.0642137712
-0.0655129160
-0.0664195873
-0.0669828118
-0.0672483728
-0.0672588099
-0.0670534194
-0.0666682537
-0.0661361217
-0.0654865890
-0.0647459773
-0.0639370654
-0.0630261695
-0.0620004748
-0.0608774271
-0.0596567212
-0.0583197823
-0.0568297641
-0.0551315480
-0.0531517439
-0.0507986896
-0.0479624509
-0.0445148219
-0.0403093248
-0.0351812099
-0.0289474554
-0.0214067679
-0.0123413972
-0.0016253297
0.0109016540
0.0253727764
0.0418127906
0.0601379803
0.0801561602
0.1015666757
0.1239604030
0.1468197491
0.1695186516
0.1913225618
0.2114856239
0.2293588701
0.2441619326
0.2552777165
0.2622669467
0.2648681683
0.2629977465
0.2567498662
0.2463965326
0.2323875708
0.2153506259
0.1960700556
0.1751792312
0.1534670395
0.1316994588
0.1105179246
0.0904393286
0.0718560195
0.0550358023
0.0401219391
0.0271331482
0.0159636050
0.0065608211
-0.0019815517
-0.0113964088
-0.0233170852
-0.0392709886
-0.0606806653
-0.0888638098
-0.1244556095
-0.1601987893
-0.1854562334
-0.1898106497
-0.1630653934
-0.0952444681
0.0234277576
0.2008993098
0.4225657834
0.6621830522
0.8888919998
1.0672185188
1.1570735111
1.1196654159
0.9686491326
0.7458062420
0.4899583514
0.2366255868
0.0180265921
-0.1413033843
-0.2399169013
-0.2840352445
-0.2826217220
-0.2474158241
-0.1929332062
-0.1362454739
-0.0884035860
-0.0510894739
-0.0243771798
-0.0069956856
0.0036710869
0.0114215814
0.0183226032
0.0249782318
0.0319434788
0.0396253501
0.0482828456
0.0580269595
0.0688241386
0.0806847232
0.0936951720
0.1078927421
0.1232861697
0.1398556706
0.1575529396
0.1763013554
0.1959980849
0.2165132557
0.2376885023
0.2593369385
0.2812726035
0.3033724874
0.3252833108
0.3466422487
0.3671130114
0.3863858447
0.4041775300
0.4202313841
0.4343172592
0.4462315432
0.4557971592
0.4628635660
0.4673067577
0.4690292641
0.4679601503
0.4640179392
0.4569883962
0.4471237195
0.4347571488
0.4202102522
0.4037927936
0.3858011596
0.3665188821
0.3462177977
0.3251580711
0.3035881952
0.2817449913
0.2598536089
0.2381275257
0.2167685479
0.1959668096
0.1759007736
0.1567372305
0.1386312996
0.1217264281
0.1061543917
0.0920095699
0.0792536800
0.0678123537
0.0576117686
0.0485785580
0.0406398108
0.0337230717
0.0277563408
0.0226680743
0.0183872514
0.0148443026
0.0119708449
0.0096989634
0.0079611987
0.0066905471
0.0058204609
0.0052848477
0.0050180709
0.0049549495
0.0050434212
0.0053313602
0.0057798321
0.0063344282
0.0069538963
0.0076101415
0.0082882255
0.0089863671
0.0097159418
0.0105014821
0.0113806775
0.0124043742
0.0136365755
0.0151544415
0.0170482891
0.0194215960
0.0223910619
0.0260865993
0.0306436776
0.0360931473
0.0427496513
0.0509610867
0.0609814784
0.0729709796
0.0869958713
0.1030285629
0.1209475914
0.1405376223
0.1614894489
0.1833999925
0.2057723027
0.2280268737
0.2496554156
0.2697408981
0.2873651468
0.3017833496
0.3124240572
0.3188891824
0.3209540009
0.3185671505
0.3118505695
0.3010982329
0.2867761628
0.2694953980
0.2497940747
0.2285687545
0.2066984539
0.1849333953
0.1638950072
0.1440759240
0.1258399863
0.1094222407
0.0949289398
0.0823375421
0.0714967124
0.0622119620
0.0546218772
0.0458597590
0.0331824390
0.0149421008
-0.0094137194
-0.0393421331
-0.0732048997
-0.1084648588
-0.1329971562
-0.1307023712
-0.0896174814
-0.0019725566
0.1358077401
0.3231040773
0.5556104811
0.8083348195
1.0262245987
1.1664010204
1.2021126561
1.1227354467
0.9363448208
0.6865239981
0.4234406353
0.1845192116
-0.0057494159
-0.1358080122
-0.2025597585
-0.2154219644
-0.1924545629
-0.1489288560
-0.0972789601
-0.0471018053
-0.0051571356
0.0246464691
0.0435139557
0.0554605055
0.0632748653
0.0691421384
0.0746437357
0.0807573755
0.0878570835
0.0957438601
0.1044990173
0.1143362856
0.1253262558
0.1375173220
0.1509356819
0.1655853365
0.1814480902
0.1984835508
0.2166291296
0.2359053429
0.2562049393
0.2772504424
0.2987673349
0.3204840746
0.3421320945
0.3634458025
0.3841625818
0.4040227558
0.4227682603
0.4401422313
0.4558906610
0.4697625165
0.4815097401
0.4908872493
0.4976529364
0.5015389125
0.5021297352
0.4995432052
0.4940207727
0.4858028255
0.4751286881
0.4622366225
0.4473638275
0.4307464392
0.4126195309
0.3932171129
0.3727721327
0.3515164750
0.3296809615
0.3074953511
0.2851883398
0.2629875609
0.2411196298
0.2198123624
0.1992956778
0.1797986124
0.1615491383
0.1447528688
0.1293646313
0.1153195361
0.1025763240
0.0910896819
0.0808102432
0.0716845875
0.0636552405
0.0566606746
0.0506353081
0.0455095059
0.0412095791
0.0376577849
0.0347723271
0.0324673557
0.0306529668
0.0292355583
0.0281762005
0.0274505149
0.0270104531
0.0268146523
0.0268258832
0.0270094647
0.0273370624
0.0277870670
0.0283445940
0.0290014840
0.0297563023
0.0306143396
0.0315876113
0.0326948578
0.0339615445
0.0354111485
0.0370390484
0.0389887842
0.0414315799
0.0445357084
0.0484664909
0.0533862976
0.0594545473
0.0668277076
0.0756592947
0.0860998736
0.0982970578
0.1123955098
0.1285695076
0.1469548273
0.1670453838
0.1882431858
0.2099492529
0.2315636138
0.2524853070
0.2721123801
0.2898418904
0.3050699045
0.3171914987
0.3256007584
0.3296907786
0.3288230083
0.3227514589
0.3122302705
0.2980656001
0.2810193243
0.2618090390
0.2411080595
0.2195454207
0.1977058768
0.1761299015
0.1553136878
0.1357091485
0.1177238977
0.1017188739
0.0880735765
0.0775273282
0.0685540688
0.0592791403
0.0481374401
0.0338734207
0.0155410902
-0.0074959883
-0.0355646961
-0.0686823592
-0.1091772989
-0.1420889383
-0.1450211695
-0.1028507484
-0.0077379418
0.1408734727
0.3362562065
0.5643994602
0.8040089236
1.0215005710
1.1627825714
1.1920164859
1.1004039247
0.9060999032
0.6532387398
0.3904739475
0.1540959906
-0.0315867242
-0.1549638794
-0.2171232474
-0.2261904145
-0.1974881112
-0.1493916540
-0.0960580759
-0.0474260418
-0.0092158486
0.0170714218
0.0344703818
0.0461374710
0.0538895775
0.0592905689
0.0636512922
0.0680295741
0.0732302207
0.0798050176
0.0880527301
0.0980191029
0.1094968602
0.1220257004
0.1354603242
0.1501783930
0.1661626575
0.1833630721
0.2016978577
0.2210535019
0.2412847587
0.2622146488
0.2836344592
0.3053037439
0.3269503230
0.3483619089
0.3692985473
0.3893375349
0.4080950226
0.4252292847
0.4404407195
0.4534718487
0.4641073180
0.4721738964
0.4775404770
0.4801180763
0.4798598345
0.4767610157
0.4708590080
0.4622338271
0.4509510166
0.4370686406
0.4209486036
0.4029571453
0.3834422502
0.3627336474
0.3411428109
0.3189629594
0.2964690565
0.2739178103
0.2515476740
0.2295788454
0.2082132671
0.1876346264
0.1680083555
0.1494816313
0.1321833756
0.1162278464
0.1016729774
0.0884634287
0.0765329153
0.0658141643
0.0562389150
0.0477379194
0.0402415525
0.0336811362
0.0279873864
0.0230900312
0.0189178109
0.0153984780
0.0124587975
0.0100245461
0.0080205132
0.0063705001
0.0049973204
0.0038255667
0.0028735668
0.0021210026
0.0015124143
0.0010039782
0.0005635068
0.0001704488
-0.0001841112
-0.0004974521
-0.0007552171
-0.0009314128
-0.0009884100
-0.0008769433
-0.0005361110
0.0001061067
0.0011315448
0.0026333522
0.0047163341
0.0074405953
0.0109355674
0.0155727387
0.0216630128
0.0294451718
0.0390858765
0.0506796666
0.0642489604
0.0797440550
0.0970431262
0.1159522285
0.1362052950
0.1575224010
0.1795461401
0.2012154319
0.2215189612
0.2395891383
0.2547020993
0.2662777059
0.2738795458
0.2772149321
0.2761350715
0.2706355715
0.2608559345
0.2470642321
0.2295829539
0.2093729277
0.1874503119
0.1647065508
0.1419083746
0.1196977995
0.0985921275
0.0789839468
0.0611411311
0.0452068403
0.0311995202
0.0190129025
0.0084406801
-0.0005408330
-0.0104096531
-0.0237857202
-0.0423891265
-0.0670401162
-0.0976590854
-0.1333739687
-0.1692163773
-0.1907313668
-0.1844614112
-0.1395323442
-0.0476532371
0.0968836022
0.2991860516
0.5474405130
0.7896137063
0.9808757285
1.0880668818
1.0896976737
0.9759488167
0.7623218299
0.5024238982
0.2423868566
0.0157179078
-0.1566990960
-0.2666036532
-0.3177776133
-0.3173691083
-0.2830242682
-0.2321683041
-0.1781205570
-0.1300944977
-0.0931977264
-0.0684319090
-0.0527213720
-0.0419755127
-0.0344228836
-0.0285733307
-0.0232364978
-0.0175218271
-0.0108385588
-0.0028957314
0.0062978185
0.0164564098
0.0276399921
0.0400148690
0.0536179392
0.0684564664
0.0845080795
0.1017207721
0.1200129031
0.1392731965
0.1593607410
0.1801049906
0.2013057789
0.2228179060
0.2443847738
0.2656410323
0.2862435407
0.3058708118
0.3242234647
0.3410244575
0.3560190742
0.3689749243
0.3796819433
0.3879523922
0.3936208580
0.3965442530
0.3965989111
0.3933887300
0.3869322993
0.3775686365
0.3656252558
0.3514181683
0.3352518820
0.3174194018
0.2982022294
0.2778703634
0.2566822995
0.2348850299
0.2127140439
0.1903933278
0.1681353645
0.1461413716
0.1246026202
0.1036995047
0.0836009181
0.0644642503
0.0464353882
0.0296487153
0.0142271123
0.0002755096
-0.0122204491
-0.0233625202
-0.0332506719
-0.0419808227
-0.0496448409
-0.0563305454
-0.0621217050
-0.0670980391
-0.0713352168
-0.0749048578
-0.0778745317
-0.0803077587
-0.0822640088
-0.0837987025
-0.0849632102
-0.0858048528
-0.0863671235
-0.0866911295
-0.0868148626
-0.0867724378
-0.0865939266
-0.0863053505
-0.0859286812
-0.0854818407
-0.0849636785
-0.0843384297
-0.0836085772
-0.0827608273
-0.0817616710
-0.0805573837
-0.0790740257
-0.0772174416
-0.0748732607
-0.0719068968
-0.0681635484
-0.0634681985
-0.0576256146
-0.0504203489
-0.0416263263
-0.0311139764
-0.0187162071
-0.0043359337
0.0120133399
0.0302072020
0.0500100106
0.0710748912
0.0929437367
0.1150472076
0.1367047315
0.1571245036
0.1754089313
0.1908549858
0.2028253244
0.2107557510
0.2142805826
0.2132326486
0.2076432915
0.1977423661
0.1839582403
0.1669177946
0.1472950605
0.1258623434
0.1034959559
0.0809603240
0.0589077447
0.0378783859
0.0183002804
0.0004892759
-0.0153506462
-0.0277221522
-0.0355692385
-0.0425778264
-0.0517099306
-0.0650133599
-0.0836217171
-0.1077543987
-0.1367165953
-0.1688992915
-0.2017792656
-0.2319190899
-0.2548915894
-0.2580717845
-0.2218179765
-0.1339781389
0.0090874623
0.2025062678
0.4328934255
0.6782562045
0.8956307204
1.0315429957
1.0553606943
0.9615012786
0.7693913989
0.5181144729
0.2539354188
0.0141075672
-0.1771609065
-0.3087069826
-0.3788066392
-0.3941031739
-0.3727014349
-0.3301624647
-0.2790426230
-0.2288935866
-0.1862623495
-0.1546912227
-0.1341557961
-0.1207085398
-0.1118700503
-0.1057082522
-0.1006627845
-0.0955450005
-0.0895379673
-0.0821964663
-0.0734469930
-0.0635877572
-0.0529575159
-0.0411847757
-0.0281957377
-0.0139661057
0.0014999750
0.0181699754
0.0359829826
0.0548497003
0.0746524481
0.0952451620
0.1164533943
0.1380743134
0.1599460425
0.1818941275
0.2035332065
0.2244985064
0.2444535846
0.2630903288
0.2801289574
0.2953180192
0.3084343932
0.3192832892
0.3276982474
0.3335411383
0.3367021629
0.3371000156
0.3346841785
0.3294135858
0.3211800276
0.3102246121
0.2968551572
0.2813715559
0.2640657763
0.2452218617
0.2251159307
0.2040161769
0.1821828690
0.1598683510
0.1373170420
0.1147654361
0.0924421029
0.0705676868
0.0493549075
0.0290085598
0.0097255139
-0.0083052853
-0.0249400872
-0.0401819201
-0.0540700751
-0.0666466810
-0.0779568449
-0.0880510176
-0.0969845795
-0.1048155997
-0.1116049380
-0.1174162916
-0.1223161959
-0.1263740235
-0.1296619850
-0.1322551287
-0.1342313406
-0.1356713444
-0.1366587014
-0.1372798108
-0.1376239094
-0.1377622272
-0.1376366993
-0.1372958829
-0.1368052252
-0.1362183578
-0.1355770976
-0.1349114460
-0.1342395895
-0.1335678995
-0.1328909320
-0.1321913295
-0.1314378240
-0.1305853316
-0.1295768730
-0.1283436536
-0.1268050641
-0.1248686797
-0.1224302606
-0.1193737520
-0.1155712838
-0.1109321072
-0.1053589396
-0.0984669062
-0.0899370475
-0.0795437525
-0.0671547587
-0.0527311519
-0.0363273664
-0.0180911852
0.0017362607
0.0228204915
0.0447336791
0.0669546469
0.0888835038
0.1098817443
0.1290561112
0.1455969366
0.1588438614
0.1682875903
0.1735699752
0.1744840125
0.1709738422
0.1631282436
0.1511897182
0.1358276381
0.1177799799
0.0977630354
0.0764714120
0.0545780319
0.0327341330
0.0115692680
-0.0083196123
-0.0267643839
-0.0434038970
-0.0579157961
-0.0702949505
-0.0808534544
-0.0902206267
-0.0993430112
-0.1094843764
-0.1222256757
-0.1394638294
-0.1634115014
-0.1965317773
-0.2341863528
-0.2658727501
-0.2812762953
-0.2703656449
-0.2233927847
-0.1308930306
0.0168259793
0.2261715804
0.4665080973
0.7011377668
0.8961044156
1.0201934609
1.0449319102
0.9467972797
0.7465815427
0.4954446700
0.2356074502
-0.0006171028
-0.1908237502
-0.3221132496
-0.3889887278
-0.4050401886
-0.3861187740
-0.3458464881
-0.2956160384
-0.2445907969
-0.1997047710
-0.1656626034
-0.1436524719
-0.1293030502
-0.1197990803
-0.1129599507
-0.1070976573
-0.1010168029
-0.0940145977
-0.0858808591
-0.0768914778
-0.0670844946
-0.0561937609
-0.0441500369
-0.0309083345
-0.0164479171
-0.0007722993
0.0160907524
0.0340892202
0.0531468347
0.0731630579
0.0940122269
0.1155988928
0.1378587759
0.1604558073
0.1830508868
0.2053224592
0.2269665145
0.2476965878
0.2672437594
0.2853566548
0.3018014444
0.3163618440
0.3288391145
0.3390520618
0.3468370371
0.3520479367
0.3545562019
0.3542508195
0.3508964847
0.3445028166
0.3353693843
0.3237880337
0.3100427136
0.2944094754
0.2771564861
0.2585448849
0.2388293193
0.2182566394
0.1970657735
0.1754877520
0.1537457082
0.1320548776
0.1106225988
0.0896483130
0.0693235642
0.0498319988
0.0313493661
0.0140435183
-0.0019255911
-0.0164518924
-0.0295830089
-0.0413956899
-0.0519652391
-0.0613655146
-0.0696689291
-0.0769464495
-0.0832675976
-0.0887004492
-0.0933116348
-0.0971663395
-0.1003283238
-0.1028599400
-0.1048220988
-0.1062742655
-0.1072744597
-0.1078792555
-0.1081437815
-0.1081217209
-0.1078653110
-0.1074253440
-0.1068511661
-0.1061906784
-0.1054562118
-0.1046229241
-0.1037158290
-0.1027485390
-0.1017217480
-0.1006232313
-0.0994278461
-0.0980975309
-0.0965813061
-0.0948152735
-0.0927226164
-0.0902135998
-0.0871855749
-0.0835235982
-0.0791010617
-0.0737784986
-0.0674034038
-0.0598103459
-0.0508209748
-0.0402440223
-0.0278753016
-0.0134917997
0.0032979087
0.0222510383
0.0428426318
0.0645457394
0.0868314188
0.1091687354
0.1310247623
0.1518645800
0.1711512767
0.1883459482
0.2029076979
0.2142936368
0.2219588834
0.2253565640
0.2239337631
0.2174356463
0.2065906256
0.1922481700
0.1751998161
0.1561790016
0.1358610650
0.1148632457
0.0937446839
0.0730064209
0.0530913986
0.0343844600
0.0172123490
0.0018437102
-0.0115109108
-0.0222495840
-0.0303765410
-0.0383002425
-0.0480472128
-0.0611305457
-0.0785499048
-0.1007915234
-0.1278282041
-0.1591193195
-0.1944708601
-0.2317969547
-0.2492910556
-0.2283995110
-0.1577962149
-0.0333813138
0.1417189481
0.3571523996
0.5953409658
0.8314457341
1.0246588602
1.1285233259
1.1192603497
0.9961643028
0.7816027089
0.5208406365
0.2622323359
0.0348824499
-0.1414963158
-0.2575497030
-0.3142819008
-0.3212787573
-0.2912318806
-0.2416617247
-0.1865860448
-0.1358900704
-0.0953265055
-0.0665153963
-0.0466987423
-0.0328910228
-0.0233721802
-0.0166387405
-0.0114038133
-0.0065970913
-0.0013648511
0.0049300476
0.0127081614
0.0221734636
0.0333133439
0.0458986087
0.0594834806
0.0738441908
0.0894172534
0.1061907766
0.1241140002
0.1431090261
0.1630708191
0.1838672064
0.2053388780
0.2272993862
0.2495351460
0.2718054350
0.2938423924
0.3153479192
0.3360896222
0.3558092636
0.3741343266
0.3907364377
0.4053317139
0.4176807629
0.4275886834
0.4349050646
0.4395239865
0.4413840199
0.4404682262
0.4368041577
0.4304638573
0.4215638586
0.4102651862
0.3967320652
0.3810667267
0.3636039372
0.3446858214
0.3246340109
0.3037496442
0.2823133669
0.2605853314
0.2388051974
0.2171949034
0.1959658278
0.1753110799
0.1554032758
0.1363945387
0.1184164989
0.1015802934
0.0859845897
0.0717397098
0.0588080007
0.0471231621
0.0366196707
0.0272327798
0.0188985200
0.0115536984
0.0051358991
-0.0004165169
-0.0051644117
-0.0091678708
-0.0124862024
-0.0151779382
-0.0173008330
-0.0189118644
-0.0200672334
-0.0208223643
-0.0212333574
-0.0213614080
-0.0212684337
-0.0210146129
-0.0205536549
-0.0198849617
-0.0190716127
-0.0181614339
-0.0171869979
-0.0161656235
-0.0150993763
-0.0139750681
-0.0127642573
-0.0114232488
-0.0098930940
-0.0080995906
-0.0059532831
-0.0033494622
-0.0001681651
0.0037258243
0.0084829758
0.0142690128
0.0212649120
0.0296156330
0.0394821087
0.0511224706
0.0646953801
0.0802536461
0.0977437516
0.1170058535
0.1377737829
0.1596750446
0.1822308178
0.2048559554
0.2268589846
0.2475125951
0.2661822086
0.2820397229
0.2944040010
0.3027716738
0.3068171401
0.3063925665
0.3015278874
0.2924308052
0.2794867900
0.2632590799
0.2444864686
0.2238071790
0.2019763980
0.1798217196
0.1580416309
0.1372057800
0.1177547566
0.1000000355
0.0841239501
0.0701796626
0.0580911636
0.0476532723
0.0386714255
0.0298777351
0.0192077990
0.0048921216
-0.0145347874
-0.0402344122
-0.0730666249
-0.1095907219
-0.1400529502
-0.1541112066
-0.1412523285
-0.0907920949
0.0081208777
0.1628353391
0.3668252340
0.6025438728
0.8425486717
1.0495010412
1.1761295264
1.1800790940
1.0718649069
0.8786637693
0.6324127920
0.3698093920
0.1322982219
-0.0497072464
-0.1726013090
-0.2374669292
-0.2508156920
-0.2245878036
-0.1758970544
-0.1205502635
-0.0685051674
-0.0260732427
0.0040716180
0.0228931054
0.0348385750
0.0434132988
0.0500190975
0.0559297947
0.0620678528
0.0690043732
0.0769593621
0.0858287033
0.0956772489
0.1066344274
0.1187576165
0.1320809739
0.1466154410
0.1623487433
0.1792453903
0.1972466755
0.2162706764
0.2362822324
0.2571963961
0.2787279223
0.3005934096
0.3225151191
0.3442209735
0.3654445578
0.3859251193
0.4054075669
0.4236424720
0.4403860678
0.4554002496
0.4684525749
0.4793162633
0.4877697433
0.4935937187
0.4964842547
0.4961712087
0.4928568206
0.4867683422
0.4781328595
0.4671772921
0.4541283936
0.4392127516
0.4226567877
0.4046867574
0.3855287500
0.3654086888
0.3445523311
0.3231852682
0.3015329250
0.2798205608
0.2582732684
0.2371159749
0.2165734410
0.1968702616
0.1782308654
0.1608795150
0.1449450166
0.1303382357
0.1170139355
0.1049264354
0.0940272438
0.0842651295
0.0755857570
0.0679316614
0.0612422485
0.0554537947
0.0504994471
0.0463092234
0.0428100121
0.0399255721
0.0375765333
0.0356803960
0.0341515312
0.0329011806
0.0318663183
0.0310592124
0.0304332499
0.0299440206
0.0295549736
0.0292374171
0.0289705185
0.0287413048
0.0285447935
0.0283851481
0.0282751172
0.0282353169
0.0282942227
0.0284881693
0.0288613505
0.0294658195
0.0303612181
0.0315419890
0.0331653673
0.0354918945
0.0387565243
0.0431686231
0.0489119696
0.0561447551
0.0649995833
0.0755834702
0.0879778446
0.1022385474
0.1183958321
0.1364658471
0.1565435288
0.1779953036
0.2000008184
0.2217945323
0.2426629730
0.2619458523
0.2790376949
0.2933876415
0.3044998595
0.3119335962
0.3153031794
0.3142780173
0.3085798099
0.2983006102
0.2842196834
0.2671454029
0.2478366607
0.2270028667
0.2053039497
0.1833503565
0.1617030523
0.1408735206
0.1213237635
0.1034663012
0.0876986218
0.0747045912
0.0637532955
0.0536991352
0.0434331347
0.0318854475
0.0180245424
0.0008553426
-0.0205808137
-0.0472061726
-0.0799066060
-0.1228490753
-0.1613083963
-0.1729978859
-0.1424053172
-0.0607929205
0.0738026175
0.2565701532
0.4759240866
0.7135043606
0.9434479984
1.1187062782
1.1947364080
1.1526550470
0.9988644004
0.7650522186
0.5019234259
0.2494985707
0.0365364699
-0.1197170180
-0.2136593075
-0.2508973407
-0.2410609740
-0.2015986729
-0.1489206398
-0.0953199034
-0.0489723187
-0.0139365669
0.0099116573
0.0263403269
0.0377142993
0.0456724264
0.0516244957
0.0567512298
0.0620042869
0.0681062605
0.0755506796
0.0846020084
0.0952956468
0.1074379298
0.1206061280
0.1345396974
0.1496462593
0.1659222264
0.1833197055
0.2017626118
0.2211464633
0.2413371172
0.2621707269
0.2834537421
0.3049629083
0.3264452677
0.3476255623
0.3683462437
0.3882721260
0.4070160320
0.4242326040
0.4396183037
0.4529114124
0.4638920304
0.4723820779
0.4782452941
0.4813872379
0.4817552875
0.4793386405
0.4741683140
0.4663171445
0.4558997879
0.4429922323
0.4277123275
0.4104242861
0.3914789236
0.3712085937
0.3499274013
0.3279310993
0.3054970405
0.2828841782
0.2603330652
0.2380658546
0.2162862997
0.1951797536
0.1749131695
0.1556351007
0.1374757006
0.1205467224
0.1049583603
0.0907595257
0.0778776721
0.0662363526
0.0557597933
0.0463728937
0.0380012264
0.0305710372
0.0240092452
0.0182435977
0.0132065281
0.0088354169
0.0050685257
0.0018447893
-0.0008961846
-0.0032141148
-0.0051680471
-0.0068163541
-0.0082167351
-0.0094262163
-0.0105011508
-0.0114420556
-0.0121882824
-0.0127963907
-0.0133121850
-0.0137657900
-0.0141716502
-0.0145285299
-0.0148195136
-0.0150120054
-0.0150577295
-0.0148927300
-0.0144373708
-0.0135963359
-0.0122587602
-0.0103022640
-0.0075937144
-0.0039846071
0.0006890385
0.0066067796
0.0139023611
0.0227731068
0.0334893123
0.0462137561
0.0610004256
0.0777945164
0.0964324328
0.1166417876
0.1380414020
0.1601413058
0.1823427372
0.2039837253
0.2244615814
0.2428275422
0.2582401467
0.2700370877
0.2777352110
0.2810305157
0.2797981542
0.2740924878
0.2641492446
0.2503862145
0.2333966448
0.2137346357
0.1922288231
0.1697797721
0.1471658304
0.1250431278
0.1039455769
0.0842848725
0.0663504919
0.0503096948
0.0362075236
0.0239668027
0.0135936519
0.0043631941
-0.0057479604
-0.0185338719
-0.0355062220
-0.0578943129
-0.0866450678
-0.1225056506
-0.1599080755
-0.1862294115
-0.1897637839
-0.1600684392
-0.0879637890
0.0344667254
0.2153715421
0.4476774663
0.6913352249
0.9078120576
1.0629150349
1.1267910586
1.0739411087
0.9029245525
0.6627986458
0.4007156562
0.1532408739
-0.0536473889
-0.2045577974
-0.2915938621
-0.3189009974
-0.3054439528
-0.2676130409
-0.2186795645
-0.1687958161
-0.1249950785
-0.0911916241
-0.0681807241
-0.0536404353
-0.0435526309
-0.0360939539
-0.0301360727
-0.0247370235
-0.0191412104
-0.0127794056
-0.0052687488
0.0035872519
0.0137987209
0.0251894144
0.0375272331
0.0510229994
0.0657195217
0.0816021838
0.0986273433
0.1167223313
0.1357854527
0.1556859858
0.1762641826
0.1973312689
0.2186694437
0.2400318801
0.2611427245
0.2817915761
0.3017183856
0.3205437260
0.3379267605
0.3535654877
0.3671967345
0.3785961952
0.3875784337
0.3939968835
0.3977438480
0.3987505004
0.3969868834
0.3924619097
0.3852233613
0.3753308288
0.3627809397
0.3478685249
0.3309281926
0.3122813050
0.2922359784
0.2710870829
0.2491162427
0.2265918357
0.2037689940
0.1808896037
0.1581823042
0.1358624404
0.1141320122
0.0931797618
0.0731811851
0.0542985321
0.0366822227
0.0204664421
0.0056349864
-0.0078692114
-0.0201041544
-0.0311287820
-0.0410029695
-0.0497875284
-0.0575442062
-0.0643356867
-0.0702255898
-0.0752784713
-0.0795598233
-0.0831360739
-0.0860745874
-0.0884436642
-0.0903125408
-0.0917513897
-0.0928313197
-0.0936243756
-0.0942035343
-0.0946405980
-0.0948779781
-0.0949141696
-0.0948159173
-0.0946354478
-0.0944104715
-0.0941641829
-0.0939052606
-0.0936278673
-0.0933116495
-0.0929217380
-0.0924087475
-0.0917087768
-0.0907434088
-0.0894197102
-0.0876302320
-0.0852530092
-0.0821515607
-0.0781748896
-0.0731574830
-0.0669135561
-0.0588302325
-0.0486460672
-0.0364682587
-0.0224410832
-0.0067463296
0.0103973077
0.0287343417
0.0479724924
0.0677826870
0.0877990598
0.1076189523
0.1268029133
0.1448746986
0.1613212711
0.1755928009
0.1871026654
0.1952274490
0.1993069432
0.1986441469
0.1926551651
0.1820416626
0.1676818977
0.1503430787
0.1307531619
0.1096008514
0.0875355987
0.0651676033
0.0430678133
0.0217687538
0.0017660559
-0.0164834858
-0.0319098355
-0.0438239542
-0.0540546355
-0.0642300491
-0.0756806331
-0.0894390944
-0.1062404083
-0.1265218188
-0.1504228384
-0.1777852481
-0.2081530977
-0.2407727054
-0.2719870626
-0.2845313943
-0.2614896474
-0.1919708556
-0.0711091875
0.0999360532
0.3139804275
0.5577143084
0.7969270121
0.9771747475
1.0609857293
1.0313229417
0.8915496136
0.6674718957
0.4066041598
0.1504409901
-0.0711290483
-0.2398234090
-0.3443225284
-0.3890994316
-0.3906352825
-0.3633342193
-0.3194635544
-0.2691537752
-0.2203985433
-0.1790546949
-0.1488422407
-0.1297947454
-0.1172169645
-0.1086791940
-0.1022868452
-0.0965715774
-0.0904912975
-0.0834301605
-0.0751985693
-0.0660323324
-0.0561329621
-0.0451856342
-0.0331209928
-0.0198964601
-0.0054946781
0.0100764354
0.0267836872
0.0445686083
0.0633474541
0.0830112044
0.1034255633
0.1244431922
0.1460262416
0.1678896094
0.1896831380
0.2110769794
0.2317615949
0.2514477553
0.2698665410
0.2867693418
0.3019278569
0.3151340949
0.3262003742
0.3349593222
0.3412633568
0.3449830962
0.3460089327
0.3442515685
0.3395223890
0.3318404685
0.3215003850
0.3087900941
0.2939903175
0.2773745429
0.2592090240
0.2397527804
0.2192575979
0.1979680282
0.1761213890
0.1539477639
0.1316700027
0.1095037211
0.0876573010
0.0663318899
0.0457214016
0.0260125160
0.0073846787
-0.0099898985
-0.0259731490
-0.0405773428
-0.0538616613
-0.0658850328
-0.0767068311
-0.0863871632
-0.0949866997
-0.1025665177
-0.1091880999
-0.1149133342
-0.1198045142
-0.1239243387
-0.1273359119
-0.1301027437
-0.1322887492
-0.1339582490
-0.1351759691
-0.1360070411
-0.1365170017
-0.1367717933
-0.1368377637
-0.1367505264
-0.1364239174
-0.1359081366
-0.1352618010
-0.1345289796
-0.1337397528
-0.1329125432
-0.1320521565
-0.1311488512
-0.1301783378
-0.1291017788
-0.1278657888
-0.1264024346
-0.1246292350
-0.1224491608
-0.1197506351
-0.1164075329
-0.1122791813
-0.1072103596
-0.1010312990
-0.0935576829
-0.0846091861
-0.0740428884
-0.0616724626
-0.0473980017
-0.0312189692
-0.0132341982
0.0063581075
0.0272603744
0.0490756586
0.0713081596
0.0933657072
0.1145578479
0.1340947900
0.1511044267
0.1649924151
0.1752263135
0.1813621312
0.1831349487
0.1804589177
0.1734272613
0.1623122737
0.1475653203
0.1298168379
0.1097963788
0.0881799629
0.0657846669
0.0433346683
0.0214465237
0.0006291687
-0.0187160820
-0.0362955349
-0.0519231172
-0.0650545995
-0.0753461797
-0.0845097743
-0.0941159627
-0.1054872786
-0.1196973955
-0.1375711247
-0.1596844147
-0.1863643518
-0.2176891597
-0.2536297231
-0.2859256121
-0.2969118556
-0.2727951485
-0.2044011678
-0.0871745733
0.0788209932
0.2889029073
0.5329383626
0.7750559269
0.9638574954
1.0626855302
1.0510088167
0.9247607910
0.7099667452
0.4536683774
0.1957454826
-0.0327254188
-0.2093265611
-0.3245752203
-0.3841633422
-0.3967716731
-0.3728607028
-0.3246701572
-0.2662189686
-0.2128397629
-0.1713284694
-0.1405721302
-0.1190448295
-0.1048191377
-0.0955661118
-0.0885554844
-0.0816991521
-0.0746623013
-0.0671438309
-0.0588997338
-0.0497430972
-0.0395441021
-0.0282300237
-0.0157852312
-0.0022255668
0.0125007488
0.0283884406
0.0454040004
0.0634912365
0.0825703294
0.1025378241
0.1232666303
0.1446060224
0.1663816391
0.1883954842
0.2104259256
0.2322276962
0.2535318933
0.2740459788
0.2934537794
0.3114167211
0.3277231780
0.3421550582
0.3544467007
0.3643780756
0.3717747841
0.3765080584
0.3784947619
0.3776973890
0.3741240651
0.3678285466
0.3589100142
0.3475112466
0.3338195008
0.3180676561
0.3005346079
0.2815217889
0.2612008314
0.2398854302
0.2179049183
0.1955628810
0.1731371563
0.1508798346
0.1290172588
0.1077500245
0.0872529794
0.0676752242
0.0491401118
0.0317452476
0.0155624898
0.0006380032
-0.0129064199
-0.0250449748
-0.0358773685
-0.0454996630
-0.0540042746
-0.0614798197
-0.0680095217
-0.0736718547
-0.0785416297
-0.0826900126
-0.0861845236
-0.0890890376
-0.0914637839
-0.0933653467
-0.0948466644
-0.0959570302
-0.0967420918
-0.0972438514
-0.0975006659
-0.0975472466
-0.0974146596
-0.0971303253
-0.0967180189
-0.0961978700
-0.0955863629
-0.0948963364
-0.0941369838
-0.0933092806
-0.0923731953
-0.0913038410
-0.0900678759
-0.0886155699
-0.0868804646
-0.0847785827
-0.0822086402
-0.0790524644
-0.0751744604
-0.0704214978
-0.0646229104
-0.0575904965
-0.0491185186
-0.0389849182
-0.0270462361
-0.0132086763
0.0025681398
0.0202265581
0.0396108915
0.0604674203
0.0824443921
0.1050920214
0.1278624901
0.1501099475
0.1710905098
0.1899622606
0.2059786288
0.2186175329
0.2273666432
0.2318869977
0.2320139016
0.2277569312
0.2192999337
0.2070010274
0.1913926015
0.1731813164
0.1531192637
0.1318669516
0.1102235171
0.0888760817
0.0683917898
0.0492178091
0.0316813304
0.0159895676
0.0022297577
-0.0096308389
-0.0191857133
-0.0263337153
-0.0340140511
-0.0446031040
-0.0596874845
-0.0800640296
-0.1057397364
-0.1359306201
-0.1690618741
-0.2045190711
-0.2325906678
-0.2316552561
-0.1866121268
-0.0895218534
0.0603937082
0.2567514195
0.4860068592
0.7274543238
0.9496956580
1.1029128236
1.1513611886
1.0828964133
0.9089171195
0.6643648906
0.4006996367
0.1545617728
-0.0485468238
-0.1939510409
-0.2779587211
-0.3071581174
-0.2918599645
-0.2495474228
-0.1957903834
-0.1421791024
-0.0963233318
-0.0618522827
-0.0380797300
-0.0212828754
-0.0095023721
-0.0011508257
0.0051468827
0.0105535962
0.0160198827
0.0222840343
0.0298720674
0.0390977232
0.0500624670
0.0626554887
0.0765537027
0.0912371688
0.1068440128
0.1236316198
0.1415515881
0.1605284542
0.1804596925
0.2012157158
0.2226398656
0.2445481809
0.2667293818
0.2889451138
0.3109299486
0.3323913062
0.3530292651
0.3726613757
0.3909464406
0.4075405342
0.4221454379
0.4345086407
0.4444233387
0.4517284352
0.4563085411
0.4580939745
0.4570607607
0.4532306324
0.4466710296
0.4374950996
0.4258616971
0.4119753838
0.3959923043
0.3780956118
0.3586521205
0.3380091589
0.3164931968
0.2944100959
0.2720436170
0.2496553272
0.2274846003
0.2057486164
0.1846423624
0.1643386314
0.1449880233
0.1267189444
0.1096376076
0.0938280322
0.0793790582
0.0663245846
0.0545965616
0.0441255796
0.0348426528
0.0266792186
0.0195671385
0.0134386971
0.0082266030
0.0038639883
0.0002844085
-0.0025781570
-0.0047893496
-0.0064161668
-0.0075275317
-0.0081921044
-0.0084781332
-0.0084536020
-0.0081861860
-0.0077418970
-0.0070912119
-0.0062445064
-0.0052639592
-0.0041984576
-0.0030835976
-0.0019416839
-0.0007817299
0.0004005423
0.0016227020
0.0029156096
0.0043234170
0.0059035673
0.0077267948
0.0098771254
0.0124518759
0.0155616548
0.0193303616
0.0238952181
0.0293761661
0.0359050914
0.0438235028
0.0534074708
0.0648440204
0.0782311308
0.0935777358
0.1108037236
0.1297399366
0.1501281718
0.1716211805
0.1937826684
0.2162027587
0.2382382343
0.2588762511
0.2772448609
0.2926230924
0.3044409516
0.3122794211
0.3158704611
0.3150970083
0.3099929767
0.3007432573
0.2876835253
0.2711217144
0.2518108318
0.2307367419
0.2087673975
0.1866529986
0.1650262444
0.1444023614
0.1251788286
0.1076353630
0.0919339193
0.0781186899
0.0661161051
0.0557348328
0.0473348774
0.0402211835
0.0302847951
0.0147643088
-0.0075269291
-0.0362008220
-0.0692945238
-0.1032704379
-0.1339471888
-0.1536993999
-0.1414446465
-0.0819388276
0.0319236879
0.1991104159
0.4104510499
0.6486368796
0.8881269441
1.0872516350
1.1968131228
1.1905227741
1.0679188815
0.8543666629
0.5959155978
0.3366680484
0.1104929973
-0.0615726363
-0.1713643599
-0.2220865970
-0.2216579482
-0.1884163313
-0.1387009913
-0.0851419523
-0.0366600178
0.0015332297
0.0279673454
0.0454784403
0.0570988898
0.0649552463
0.0708142062
0.0760825459
0.0818072323
0.0886754352
0.0970142813
0.1067906782
0.1176116981
0.1292013969
0.1419668826
0.1559530751
0.1711685175
0.1875928325
0.2051767222
0.2238419680
0.2434814308
0.2639590509
0.2851098479
0.3068054337
0.3289157928
0.3510684934
0.3729021048
0.3940780004
0.4142803582
0.4332161601
0.4506151911
0.4662296556
0.4798336899
0.4912241135
0.5002205508
0.5066654299
0.5104239836
0.5113842489
0.5094561960
0.5043651251
0.4961759941
0.4852319579
0.4718638769
0.4563903172
0.4391175503
0.4203395534
0.4003380093
0.3793823065
0.3577295387
0.3356245057
0.3132997125
0.2909753698
0.2688593941
0.2471474072
0.2260227367
0.2056564187
0.1862085211
0.1678301913
0.1506608108
0.1348274674
0.1204085406
0.1073500231
0.0955766191
0.0850141387
0.0755894293
0.0672303757
0.0598659003
0.0534259628
0.0478415605
0.0430447279
0.0389685373
0.0355470981
0.0327155573
0.0304100995
0.0285679464
0.0271273573
0.0260276292
0.0252090962
0.0246131299
0.0242409787
0.0241100321
0.0241646447
0.0243566010
0.0246499980
0.0250222104
0.0254638904
0.0259789678
0.0265846501
0.0273114223
0.0282030470
0.0293165645
0.0307222926
0.0325038266
0.0347580398
0.0375950826
0.0411383834
0.0454838703
0.0507108252
0.0571915872
0.0652452872
0.0751019363
0.0869024253
0.1006985251
0.1164528866
0.1340390404
0.1532413979
0.1737569593
0.1951990959
0.2170931590
0.2390246067
0.2602074258
0.2796045824
0.2963471410
0.3097348757
0.3192362714
0.3244885228
0.3252975349
0.3216379228
0.3136530120
0.3016548379
0.2861241464
0.2675686454
0.2466988185
0.2245108417
0.2018733242
0.1795226487
0.1580629717
0.1379662233
0.1195721070
0.1030881003
0.0885894541
0.0760177704
0.0651772775
0.0559461849
0.0485593534
0.0392510927
0.0248703899
0.0038712501
-0.0236873028
-0.0561412269
-0.0902214615
-0.1220126230
-0.1416007032
-0.1287823433
-0.0695518711
0.0427753430
0.2075628863
0.4168533034
0.6553680964
0.8977939529
1.0916111349
1.1895436143
1.1695539263
1.0349894577
0.8140657900
0.5524296814
0.2956751924
0.0765257172
-0.0860533937
-0.1866934331
-0.2259156905
-0.2185072835
-0.1827227035
-0.1333935251
-0.0819284065
-0.0363130901
-0.0011104016
0.0225502503
0.0378518676
0.0480101985
0.0548884154
0.0600455261
0.0647363733
0.0699116348
0.0762178236
0.0839972878
0.0932882107
0.1038246106
0.1151908712
0.1277047068
0.1414764438
0.1565134000
0.1727877453
0.1902396513
0.2087785616
0.2282831929
0.2486015338
0.2695508460
0.2909176633
0.3125721363
0.3342602074
0.3555812729
0.3761640683
0.3956666687
0.4137764884
0.4302102814
0.4447141407
0.4570634991
0.4670631285
0.4745471404
0.4793789856
0.4814514543
0.4806866762
0.4770361203
0.4703619695
0.4606471284
0.4482361511
0.4334707497
0.4166810542
0.3981844422
0.3782855202
0.3572759049
0.3354342976
0.3130266433
0.2903061343
0.2675132103
0.2448755579
0.2226081111
0.2009130512
0.1799798065
0.1599850527
0.1410927127
0.1234539564
0.1072068810
0.0924214375
0.0790425763
0.0669997978
0.0562227883
0.0466414200
0.0381857509
0.0307860249
0.0243720792
0.0188704544
0.0142066102
0.0103061901
0.0070950235
0.0044991259
0.0024446985
0.0008581285
-0.0003340111
-0.0012049612
-0.0018277771
-0.0022753279
-0.0025421017
-0.0026178345
-0.0025695670
-0.0024504227
-0.0022995595
-0.0021421693
-0.0019894784
-0.0018387470
-0.0016732695
-0.0014623745
-0.0011614249
-0.0007118174
-0.0000409833
0.0009381439
0.0023301318
0.0042549580
0.0068465699
0.0102528944
0.0145573036
0.0199528732
0.0268238981
0.0354585866
0.0460450998
0.0586715509
0.0733260060
0.0898964833
0.1081709537
0.1278373406
0.1484835197
0.1695973193
0.1905851878
0.2109146791
0.2296169210
0.2457561652
0.2585788252
0.2675134767
0.2721708571
0.2723438657
0.2680072225
0.2593152303
0.2466031745
0.2303884967
0.2112976739
0.1899756245
0.1673734494
0.1443465330
0.1216214691
0.0997960597
0.0793393162
0.0605914583
0.0437639149
0.0289393236
0.0160715307
0.0050395221
-0.0043457216
-0.0139584010
-0.0257612300
-0.0414226069
-0.0623166146
-0.0895230203
-0.1239262050
-0.1615036082
-0.1901079845
-0.1978646913
-0.1738743711
-0.1082133831
0.0080657504
0.1842815787
0.4112833578
0.6528774964
0.8727900322
1.0358801355
1.1081401088
1.0574997233
0.8888894671
0.6523598677
0.3928280758
0.1463574538
-0.0598424241
-0.2074139609
-0.2915075321
-0.3220465270
-0.3110877395
-0.2714467305
-0.2166978272
-0.1611741237
-0.1169720668
-0.0846947810
-0.0624027671
-0.0479227365
-0.0388295586
-0.0324461051
-0.0264284303
-0.0202351068
-0.0135479725
-0.0061063362
0.0022872809
0.0117671445
0.0224043075
0.0342066098
0.0471706337
0.0613409508
0.0767116594
0.0932487571
0.1108904037
0.1295469206
0.1491007913
0.1694066609
0.1902913365
0.2115537870
0.2329651432
0.2542686978
0.2751799052
0.2953864623
0.3145491431
0.3323922473
0.3486988792
0.3631294767
0.3753913577
0.3852423583
0.3924902793
0.3969927821
0.3986573886
0.3974414815
0.3933523036
0.3864469588
0.3768324112
0.3646654856
0.3501528674
0.3335511024
0.3151180234
0.2950306130
0.2736516270
0.2513383690
0.2284227109
0.2052110936
0.1819845268
0.1589985887
0.1364833491
0.1146424270
0.0936532902
0.0736679601
0.0548130270
0.0371896497
0.0208736998
0.0060092274
-0.0073787105
-0.0193864904
-0.0301073439
-0.0396313585
-0.0480454770
-0.0554334980
-0.0618760754
-0.0674507186
-0.0722317929
-0.0762905189
-0.0796949727
-0.0825100861
-0.0847976462
-0.0866162961
-0.0880215339
-0.0890657137
-0.0897980449
-0.0902645851
-0.0905081331
-0.0905682537
-0.0904813649
-0.0902807400
-0.0899966499
-0.0896568117
-0.0892647849
-0.0887709554
-0.0881878124
-0.0875153113
-0.0867336498
-0.0858032681
-0.0846648487
-0.0832393165
-0.0814278386
-0.0791118247
-0.0761529267
-0.0723930389
-0.0676542980
-0.0617390829
-0.0544300151
-0.0455100287
-0.0348490921
-0.0222844628
-0.0077413196
0.0087477802
0.0270428472
0.0468961107
0.0679520058
0.0897471743
0.1117104638
0.1331629285
0.1533178286
0.1712806306
0.1862609566
0.1977181745
0.2051151261
0.2081080005
0.2065474606
0.2004786425
0.1901411560
0.1759690844
0.1585909846
0.1387656520
0.1171892237
0.0947297103
0.0721631229
0.0501454697
0.0292127567
0.0097810087
-0.0078532829
-0.0235131748
-0.0371487482
-0.0489288859
-0.0591900931
-0.0687031761
-0.0787399635
-0.0910734875
-0.1079779854
-0.1318667677
-0.1628337370
-0.1978068787
-0.2307375692
-0.2526006477
-0.2513944166
-0.2141774280
-0.1308584627
0.0092102771
0.2042638261
0.4391687647
0.6854232191
0.9011568607
1.0366064229
1.0607768951
0.9668330591
0.7725972230
0.5201306972
0.2572514410
0.0196741736
-0.1686122972
-0.2966139757
-0.3639577705
-0.3780309193
-0.3554448470
-0.3110420403
-0.2573874348
-0.2047684149
-0.1611948141
-0.1309506907
-0.1111246160
-0.0982608584
-0.0895699191
-0.0829050535
-0.0767622711
-0.0702803354
-0.0632289500
-0.0554688371
-0.0467985845
-0.0371197846
-0.0263575741
-0.0144581796
-0.0013884288
0.0128614052
0.0282774265
0.0448221056
0.0624341566
0.0810285833
0.1004967652
0.1207186315
0.1416933277
0.1631491280
0.1847361924
0.2061225807
0.2269942524
0.2470550668
0.2660267830
0.2836490599
0.2996794560
0.3138934298
0.3260843395
0.3360634430
0.3436598979
0.3487207618
0.3511109920
0.3507134202
0.3473672780
0.3409157760
0.3316323243
0.3198178083
0.3057654156
0.2897606361
0.2720812617
0.2529973869
0.2327714082
0.2116580243
0.1899042363
0.1677493475
0.1454249632
0.1231549912
0.1011556414
0.0796354262
0.0587951597
0.0388279587
0.0199192422
0.0022467311
-0.0140207656
-0.0288052043
-0.0421670671
-0.0541786951
-0.0649117218
-0.0744377410
-0.0828286281
-0.0901556190
-0.0964892288
-0.1018992598
-0.1064549654
-0.1102250529
-0.1132775169
-0.1156796315
-0.1174979505
-0.1187983069
-0.1196458138
-0.1201048632
-0.1202391273
-0.1201115574
-0.1197843844
-0.1193191190
-0.1187716019
-0.1180843557
-0.1172708533
-0.1163831409
-0.1154579149
-0.1145165218
-0.1135649582
-0.1125938578
-0.1115775704
-0.1104735641
-0.1092238153
-0.1077549504
-0.1059782458
-0.1037896283
-0.1010696747
-0.0976836119
-0.0934813172
-0.0882973178
-0.0819507910
-0.0742455646
-0.0649701162
-0.0538976259
-0.0408417438
-0.0257991289
-0.0088734609
0.0097468558
0.0297886918
0.0508941925
0.0726207785
0.0944411454
0.1157432638
0.1358303792
0.1539210095
0.1691486607
0.1806694180
0.1881214099
0.1912434517
0.1899193436
0.1841944525
0.1742758931
0.1605320673
0.1434926198
0.1238484388
0.1024516556
0.0801417452
0.0575677347
0.0354435496
0.0143495768
-0.0052706336
-0.0231103685
-0.0389997519
-0.0529057446
-0.0649321445
-0.0746568411
-0.0818634384
-0.0903648344
-0.1030842329
-0.1216802870
-0.1465467737
-0.1768122536
-0.2103406571
-0.2437313664
-0.2733046904
-0.2853709026
-0.2602987201
-0.1858439463
-0.0573827451
0.1220883600
0.3419524848
0.5839723852
0.8181796671
0.9913256933
1.0623796974
1.0153851986
0.8594726064
0.6273221808
0.3638423056
0.1110761118
-0.1015224813
-0.2575204660
-0.3525201771
-0.3875647310
-0.3788258390
-0.3428311873
-0.2932072684
-0.2406778343
-0.1930636469
-0.1552824791
-0.1292532464
-0.1120645105
-0.1004894674
-0.0923552462
-0.0858938646
-0.0797422287
-0.0729421336
-0.0649402624
-0.0555881870
-0.0451423678
-0.0339586021
-0.0216800853
-0.0082218759
0.0064490741
0.0223385079
0.0394248638
0.0576592755
0.0769655717
0.0972402763
0.1183526084
0.1401444972
0.1624315084
0.1851195691
0.2079543895
0.2305677363
0.2526144365
0.2737723778
0.2937425085
0.3122488372
0.3290384335
0.3438814271
0.3565710085
0.3669234288
0.3747779996
0.3799970929
0.3824661415
0.3820936386
0.3787312441
0.3722345776
0.3628907375
0.3510054842
0.3368755617
0.3207886975
0.3030236023
0.2838499720
0.2635300293
0.2423214090
0.2204735196
0.1982267527
0.1758124835
0.1534532103
0.1313629670
0.1097469080
0.0888011709
0.0687128770
0.0496601308
0.0318120206
0.0153288745
0.0003156299
-0.0132772353
-0.0255252854
-0.0365023335
-0.0462804413
-0.0549299196
-0.0625193281
-0.0691154751
-0.0747834178
-0.0795864624
-0.0835861638
-0.0868423263
-0.0894149921
-0.0913688739
-0.0927682266
-0.0936755540
-0.0941516087
-0.0942553921
-0.0940441547
-0.0935733955
-0.0928968625
-0.0920665526
-0.0911327115
-0.0901315369
-0.0890593280
-0.0879292021
-0.0867451899
-0.0854995692
-0.0841728654
-0.0827338513
-0.0811395468
-0.0793352194
-0.0772543838
-0.0748188023
-0.0719384843
-0.0685116866
-0.0644249135
-0.0595516498
-0.0537490200
-0.0468613486
-0.0387212077
-0.0291494165
-0.0179550818
-0.0049358191
0.0101224887
0.0273392588
0.0464283768
0.0669770781
0.0885325408
0.1106018863
0.1326521787
0.1541104251
0.1743635756
0.1927585231
0.2086021036
0.2211610961
0.2296630691
0.2335544699
0.2329088338
0.2279605893
0.2190205152
0.2064757405
0.1907891729
0.1724977249
0.1522140580
0.1306271843
0.1085024660
0.0866816155
0.0658717719
0.0461410735
0.0281828775
0.0124741472
-0.0008319238
-0.0119059123
-0.0212421652
-0.0296587992
-0.0382977015
-0.0486245290
-0.0624287089
-0.0818446317
-0.1083951978
-0.1408860484
-0.1751316474
-0.2039599887
-0.2172125963
-0.2018705744
-0.1480869846
-0.0430564982
0.1190648325
0.3314477831
0.5745895485
0.8163137431
1.0122894502
1.1191605575
1.1137975255
0.9950393783
0.7836518166
0.5223272183
0.2635835179
0.0369174855
-0.1384821192
-0.2533875742
-0.3085591776
-0.3139524537
-0.2825382513
-0.2318056965
-0.1761729837
-0.1256385457
-0.0857810540
-0.0577594183
-0.0388647211
-0.0261707055
-0.0174960561
-0.0110275987
-0.0053193697
0.0007077219
0.0077658946
0.0162004946
0.0259899960
0.0367460001
0.0483142215
0.0610386313
0.0749631824
0.0901038205
0.1064485082
0.1239572249
0.1425619667
0.1621667464
0.1826475938
0.2038525552
0.2256016940
0.2477569678
0.2701213159
0.2923369184
0.3140645574
0.3349856799
0.3548023987
0.3732375302
0.3900347846
0.4049586208
0.4177941631
0.4283472012
0.4364441958
0.4419323979
0.4446798444
0.4445591668
0.4411753818
0.4346475697
0.4253070398
0.4134737656
0.3994563852
0.3835522010
0.3660471796
0.3472159523
0.3273218146
0.3066167264
0.2853413119
0.2637248598
0.2419853232
0.2203293195
0.1989521304
0.1780377022
0.1577587542
0.1382773969
0.1197447038
0.1023004134
0.0860729288
0.0711793174
0.0577181917
0.0456749057
0.0349559829
0.0254692246
0.0171256601
0.0098395471
0.0035283717
-0.0018871520
-0.0064830816
-0.0103322462
-0.0135042469
-0.0160654565
-0.0180790195
-0.0196048520
-0.0206996421
-0.0214168495
-0.0218067057
-0.0219162139
-0.0217891490
-0.0214661843
-0.0209857266
-0.0203833961
-0.0196915871
-0.0189437836
-0.0181649781
-0.0173469083
-0.0164698468
-0.0155034600
-0.0144067817
-0.0131282134
-0.0116055241
-0.0097658503
-0.0075256962
-0.0047909336
-0.0014568017
0.0025920927
0.0074817751
0.0133489035
0.0203407683
0.0286152925
0.0383410313
0.0496971724
0.0628735360
0.0780705747
0.0953998595
0.1145857692
0.1352633046
0.1570084201
0.1793356378
0.2016980481
0.2234873094
0.2440336480
0.2626058585
0.2784113032
0.2906387076
0.2988227987
0.3027238223
0.3022437602
0.2974354280
0.2885024748
0.2757993833
0.2598314701
0.2412548852
0.2208766124
0.1996196655
0.1780454544
0.1568943033
0.1368691886
0.1184879473
0.1020825775
0.0877929898
0.0755699790
0.0651791536
0.0562009825
0.0480307957
0.0398890083
0.0307585546
0.0172529073
-0.0030658458
-0.0304678952
-0.0630557095
-0.0968144782
-0.1242819462
-0.1319051656
-0.1072568767
-0.0403549350
0.0763376894
0.2489723772
0.4752255944
0.7199060559
0.9457349546
1.1180253155
1.2046819951
1.1762164775
1.0247615608
0.7960326132
0.5371027851
0.2856219764
0.0698167296
-0.0915097708
-0.1900997743
-0.2325097594
-0.2302360525
-0.1959816856
-0.1436560433
-0.0883727669
-0.0423541560
-0.0074579255
0.0168797232
0.0322284346
0.0411636993
0.0471850609
0.0524566785
0.0575911429
0.0631242828
0.0694521204
0.0768308711
0.0853769440
0.0950730239
0.1059555753
0.1181064254
0.1315568114
0.1463092335
0.1623375738
0.1795870965
0.1979744145
0.2173873989
0.2376852734
0.2586986435
0.2802315823
0.3021883042
0.3242912968
0.3461581137
0.3674316891
0.3877803373
0.4068977531
0.4245030114
0.4403405675
0.4541802572
0.4658172965
0.4750722815
0.4817911891
0.4858453760
0.4871315796
0.4855720825
0.4810269858
0.4733594535
0.4628873541
0.4499441540
0.4348512128
0.4179177829
0.3994410096
0.3797059313
0.3589854793
0.3375404779
0.3156196442
0.2934595885
0.2712848139
0.2493077165
0.2277285853
0.2067356024
0.1865048428
0.1672002743
0.1489737579
0.1319650474
0.1163017823
0.1020566982
0.0891742331
0.0775793082
0.0671975524
0.0579564634
0.0497852544
0.0426138157
0.0363726784
0.0309930144
0.0264066325
0.0225459603
0.0193440575
0.0167346245
0.0146520027
0.0130311738
0.0118077607
0.0109180265
0.0102988755
0.0098878525
0.0096640741
0.0096647433
0.0098350608
0.0101284080
0.0105113118
0.0109634442
0.0114776226
0.0120598095
0.0127291126
0.0135176514
0.0144677667
0.0156321026
0.0170763313
0.0188792700
0.0211328812
0.0239422726
0.0274256971
0.0317145532
0.0368562730
0.0430620454
0.0507022943
0.0600571631
0.0713160230
0.0845774727
0.0998493385
0.1170486745
0.1360017622
0.1564441106
0.1780204566
0.2002847644
0.2227104824
0.2448386868
0.2657331868
0.2844253676
0.3001155043
0.3121752840
0.3201480134
0.3237459307
0.3228500655
0.3175102390
0.3079450571
0.2945418520
0.2778344574
0.2583173476
0.2369076246
0.2145279332
0.1919735862
0.1699125646
0.1488855170
0.1293057602
0.1114592791
0.0955047265
0.0814734230
0.0692693574
0.0586691864
0.0500790738
0.0416452565
0.0299474816
0.0128363693
-0.0105581763
-0.0398280981
-0.0732874172
-0.1081632435
-0.1393875375
-0.1492598491
-0.1221401886
-0.0480806586
0.0771745460
0.2521891377
0.4698347368
0.7165519379
0.9514844615
1.1203190021
1.1880289346
1.1401896731
0.9829460036
0.7475879157
0.4841798892
0.2335543829
0.0239815964
-0.1288305304
-0.2193072515
-0.2542904307
-0.2468754270
-0.2101607586
-0.1572436172
-0.1012198793
-0.0545316225
-0.0205889595
0.0029663897
0.0185110954
0.0284431597
0.0351819034
0.0410704336
0.0471292882
0.0536357048
0.0608411326
0.0689421236
0.0780803323
0.0883425163
0.0997605358
0.1123256203
0.1260721465
0.1410102908
0.1571184974
0.1743469353
0.1926174976
0.2118238019
0.2318311903
0.2524767355
0.2735695768
0.2948910840
0.3161943923
0.3372043611
0.3576175746
0.3771198955
0.3955352670
0.4125297362
0.4277575116
0.4409205908
0.4517687606
0.4600995968
0.4657584644
0.4686385177
0.4686807000
0.4658737436
0.4602541701
0.4519062904
0.4409622043
0.4276018007
0.4120527578
0.3945499410
0.3752339256
0.3544592207
0.3325866741
0.3099526276
0.2868690740
0.2636232950
0.2404778243
0.2176704474
0.1954141995
0.1738972648
0.1532829330
0.1337097341
0.1152914503
0.0981171153
0.0822510147
0.0677793768
0.0547254737
0.0430056652
0.0325376872
0.0232412270
0.0150379229
0.0078513647
0.0016070934
-0.0037673988
-0.0083426684
-0.0121873207
-0.0153680095
-0.0179494470
-0.0199953266
-0.0215691028
-0.0227324626
-0.0235451419
-0.0240649250
-0.0243476454
-0.0244471849
-0.0244154742
-0.0242623881
-0.0239358798
-0.0234915274
-0.0229755720
-0.0224177374
-0.0218312297
-0.0212127374
-0.0205424317
-0.0197839659
-0.0188844762
-0.0177745808
-0.0163683807
-0.0145634591
-0.0122408820
-0.0092651974
-0.0054844362
-0.0007301068
0.0051834784
0.0124599160
0.0213194910
0.0324706068
0.0462786885
0.0623012166
0.0800929610
0.0992071317
0.1191954688
0.1396082571
0.1599943257
0.1799010483
0.1988743429
0.2164586722
0.2321970433
0.2456310077
0.2563006615
0.2637446452
0.2675001438
0.2671028867
0.2620871480
0.2520803827
0.2378504802
0.2203813880
0.2005072135
0.1790014898
0.1565776348
0.1338882505
0.1115250093
0.0900186534
0.0698389955
0.0513949181
0.0352649080
0.0220895520
0.0107476638
0.0000404857
-0.0111380265
-0.0238012028
-0.0388696598
-0.0571712999
-0.0794413118
-0.1063221704
-0.1383636367
-0.1753535511
-0.2059258440
-0.2131492655
-0.1841010022
-0.1100447602
0.0135692350
0.1871042359
0.4068302781
0.6603422932
0.8939976430
1.0575232150
1.1198479946
1.0691030655
0.9126217212
0.6786399762
0.4145670161
0.1617546826
-0.0506992088
-0.2059418516
-0.2993654485
-0.3367301955
-0.3268564191
-0.2879965104
-0.2359767156
-0.1827429152
-0.1363606246
-0.1010149933
-0.0770108056
-0.0610785636
-0.0501988711
-0.0426447143
-0.0369605932
-0.0319547359
-0.0266977551
-0.0205243354
-0.0130336027
-0.0040891235
0.0061810946
0.0173870748
0.0294970169
0.0427803987
0.0572549232
0.0729090415
0.0897019525
0.1075636027
0.1263946867
0.1460666468
0.1664216733
0.1872727042
0.2084034253
0.2295682704
0.2505682499
0.2711605438
0.2909698615
0.3096522564
0.3268964143
0.3424236531
0.3559877554
0.3673745937
0.3764025622
0.3829226878
0.3868186294
0.3880066782
0.3864356672
0.3820865319
0.3748749993
0.3647918073
0.3521546403
0.3372792673
0.3204711769
0.3020255772
0.2822273959
0.2613512799
0.2396615959
0.2174124299
0.1948475875
0.1722005938
0.1496946933
0.1275428501
0.1059477476
0.0851017889
0.0651870966
0.0463754097
0.0288278101
0.0126902701
-0.0020188758
-0.0153669405
-0.0274219617
-0.0382517529
-0.0479239037
-0.0565057795
-0.0640645215
-0.0706670468
-0.0763800486
-0.0812699956
-0.0854031328
-0.0888454809
-0.0916628363
-0.0939207715
-0.0956846350
-0.0970195509
-0.0979904193
-0.0986619163
-0.0990984937
-0.0993643792
-0.0995235766
-0.0995629476
-0.0994311892
-0.0991915607
-0.0988932410
-0.0985697800
-0.0982390987
-0.0979034889
-0.0975495611
-0.0971477707
-0.0966526413
-0.0960030641
-0.0951223011
-0.0939179853
-0.0922821207
-0.0900910823
-0.0872056161
-0.0834708391
-0.0787162391
-0.0727556751
-0.0653873770
-0.0563963105
-0.0456318031
-0.0329765716
-0.0183834913
-0.0019069032
0.0162973857
0.0359722570
0.0567598412
0.0782010111
0.0997351738
0.1207002706
0.1403327771
0.1577677034
0.1722270168
0.1831990249
0.1901706820
0.1928129843
0.1909833116
0.1847254278
0.1742694806
0.1600320013
0.1426159055
0.1227500733
0.1011104825
0.0785433126
0.0558095713
0.0335580436
0.0123252923
-0.0074643429
-0.0254987446
-0.0415780179
-0.0555510878
-0.0669322092
-0.0767584235
-0.0864044398
-0.0971688917
-0.1102743379
-0.1268672857
-0.1480186268
-0.1747235850
-0.2080813735
-0.2502505053
-0.2850557430
-0.2944328917
-0.2653698907
-0.1899068137
-0.0651358688
0.1067986016
0.3187001207
0.5583171918
0.7975448956
0.9800345619
1.0645140008
1.0331480580
0.8915386140
0.6675934274
0.4057290057
0.1491478934
-0.0713849804
-0.2377904906
-0.3433325982
-0.3863639042
-0.3834207234
-0.3514579179
-0.3044303566
-0.2532929149
-0.2060004751
-0.1675079262
-0.1397701638
-0.1216987111
-0.1087343757
-0.0986525850
-0.0905762761
-0.0837251656
-0.0774157494
-0.0710613031
-0.0641718818
-0.0563543198
-0.0473122311
-0.0368460091
-0.0248528267
-0.0113266926
0.0036412266
0.0198628289
0.0370532322
0.0551056276
0.0742312140
0.0942550016
0.1149837062
0.1362153133
0.1577386926
0.1793335681
0.2007705182
0.2218109758
0.2422072278
0.2617024156
0.2800305351
0.2969164364
0.3120758237
0.3252152561
0.3360336251
0.3443376782
0.3500274102
0.3530153875
0.3532530237
0.3507305793
0.3454772089
0.3375612736
0.3270901476
0.3142100527
0.2991060580
0.2820020793
0.2631608798
0.2428840693
0.2215121050
0.1994126139
0.1768023178
0.1539493628
0.1311421321
0.1086396332
0.0866714980
0.0654379833
0.0451099702
0.0258289641
0.0077070952
-0.0091728817
-0.0247575877
-0.0390230189
-0.0519745474
-0.0636469202
-0.0740669216
-0.0832391624
-0.0912565133
-0.0982117249
-0.1041936792
-0.1092873880
-0.1135739926
-0.1171307647
-0.1200312515
-0.1223454397
-0.1241394857
-0.1254756750
-0.1264124228
-0.1270042741
-0.1273019031
-0.1273521138
-0.1271978398
-0.1268781439
-0.1264282036
-0.1258528667
-0.1251665356
-0.1244021153
-0.1235794510
-0.1227053277
-0.1217734704
-0.1207645440
-0.1196462219
-0.1183737979
-0.1168898973
-0.1151240902
-0.1129928864
-0.1103997361
-0.1072350292
-0.1033760955
-0.0986872052
-0.0930195680
-0.0862113340
-0.0780875931
-0.0684603752
-0.0571286502
-0.0438783279
-0.0282768024
-0.0102905432
0.0095020422
0.0305284151
0.0522255755
0.0740400617
0.0954279504
0.1158548568
0.1347959346
0.1517358759
0.1661691634
0.1776027193
0.1855548625
0.1895534803
0.1891359989
0.1838419841
0.1735360405
0.1591144216
0.1415606446
0.1217689856
0.1005444379
0.0786027112
0.0565702320
0.0349841435
0.0142923057
-0.0051467048
-0.0230635946
-0.0392783536
-0.0537002549
-0.0663278550
-0.0772489936
-0.0862164543
-0.0941050741
-0.1043891097
-0.1194933904
-0.1406217546
-0.1677607093
-0.1996782931
-0.2339213170
-0.2675161798
-0.2870376587
-0.2753596676
-0.2207175236
-0.1167422149
0.0375395990
0.2377055877
0.4739515550
0.7219020249
0.9290122380
1.0526561336
1.0680817487
0.9683949306
0.7697838435
0.5183735020
0.2576040983
0.0210096724
-0.1677722886
-0.2959257647
-0.3660495364
-0.3862709638
-0.3670621176
-0.3212365401
-0.2639499659
-0.2110248266
-0.1681328627
-0.1357390897
-0.1132539306
-0.0990214863
-0.0903196229
-0.0835721438
-0.0772109846
-0.0708312332
-0.0640159861
-0.0564449747
-0.0478945659
-0.0382377616
-0.0274441990
-0.0155544414
-0.0025092599
0.0117370431
0.0271954305
0.0438488515
0.0616522416
0.0805325226
0.1003886024
0.1210912187
0.1424802075
0.1643648509
0.1865263310
0.2087178162
0.2306644611
0.2520665820
0.2727299294
0.2923498762
0.3105689284
0.3270708848
0.3415808371
0.3538651701
0.3637315614
0.3710289815
0.3756476941
0.3775192555
0.3766165152
0.3729536154
0.3665859916
0.3576103718
0.3461018897
0.3321602518
0.3161173871
0.2983005129
0.2790225768
0.2585850237
0.2372777266
0.2153762753
0.1931418585
0.1708212634
0.1486468764
0.1268366873
0.1055943319
0.0851090704
0.0655557621
0.0470948652
0.0298746526
0.0140311607
-0.0004444750
-0.0135983981
-0.0254785273
-0.0361345561
-0.0456179529
-0.0539819611
-0.0612815988
-0.0675736592
-0.0729167104
-0.0773710954
-0.0809989320
-0.0838642280
-0.0860358340
-0.0875877008
-0.0885957210
-0.0891375618
-0.0892926654
-0.0891422489
-0.0887693043
-0.0881960432
-0.0873709539
-0.0863619304
-0.0852288105
-0.0840188288
-0.0827666166
-0.0814942019
-0.0802110093
-0.0789138605
-0.0775869734
-0.0762019630
-0.0747178409
-0.0730810154
-0.0712252915
-0.0690718711
-0.0665293525
-0.0634937310
-0.0598483268
-0.0554614916
-0.0501880905
-0.0439614335
-0.0365010368
-0.0274819374
-0.0166722777
-0.0039333068
0.0107805939
0.0274219146
0.0458500394
0.0658312472
0.0870387119
0.1090525021
0.1313595809
0.1534241051
0.1745941018
0.1939226698
0.2105990516
0.2239681321
0.2335304390
0.2389421425
0.2400150557
0.2367166338
0.2291699752
0.2176538124
0.2025120897
0.1844301089
0.1642899139
0.1428912185
0.1209511749
0.0991043735
0.0779028431
0.0578160507
0.0392309016
0.0224517394
0.0076968242
-0.0050191214
-0.0158968306
-0.0254318148
-0.0344564880
-0.0441401661
-0.0559890675
-0.0718463127
-0.0938919246
-0.1242735522
-0.1596636324
-0.1924641614
-0.2139060578
-0.2140768812
-0.1819208653
-0.1052622786
0.0250482542
0.2080906573
0.4325173197
0.6759974945
0.9052172989
1.0758797141
1.1370366598
1.0789025977
0.9233460696
0.6985258853
0.4386105584
0.1837783068
-0.0251111533
-0.1764357240
-0.2688586974
-0.3060106516
-0.2970773659
-0.2567998206
-0.2028758232
-0.1474965914
-0.0987697147
-0.0612855322
-0.0361167185
-0.0208182500
-0.0102788112
-0.0023542157
0.0041932950
0.0104186535
0.0170756978
0.0246171716
0.0331947242
0.0426852342
0.0531544432
0.0647267416
0.0774576286
0.0913773942
0.1064911184
0.1227786717
0.1401947152
0.1586687004
0.1781048689
0.1983822530
0.2193943987
0.2410234811
0.2629688626
0.2849294990
0.3066141747
0.3277415033
0.3480399100
0.3672459097
0.3851026367
0.4013627084
0.4157885711
0.4281525001
0.4382365995
0.4458328029
0.4507429624
0.4526246920
0.4513950298
0.4472600657
0.4404282877
0.4311105781
0.4195202128
0.4058728618
0.3903865891
0.3732818525
0.3547815041
0.3351107897
0.3144973490
0.2931712159
0.2713648180
0.2493129771
0.2272529089
0.2054242288
0.1840698196
0.1634367573
0.1437747335
0.1253358339
0.1082897126
0.0925716156
0.0781570913
0.0650197387
0.0531279476
0.0424448987
0.0329285635
0.0245317044
0.0172018748
0.0108814189
0.0055074717
0.0010119592
-0.0026784018
-0.0056421037
-0.0079628477
-0.0097295445
-0.0110363137
-0.0119824840
-0.0126183341
-0.0129439607
-0.0130113658
-0.0128664279
-0.0125488394
-0.0120914474
-0.0115201460
-0.0108538767
-0.0101046281
-0.0092774358
-0.0083705077
-0.0073755041
-0.0062772146
-0.0050534758
-0.0036751715
-0.0021062328
-0.0003036378
0.0017380583
0.0040840643
0.0069589361
0.0105746265
0.0151267751
0.0207947082
0.0277414383
0.0361136651
0.0460417745
0.0576398391
0.0710056187
0.0862207864
0.1033512873
0.1225274342
0.1436483785
0.1659723462
0.1887629060
0.2113219753
0.2329898200
0.2531450547
0.2712046425
0.2866238953
0.2988964733
0.3075543856
0.3121679897
0.3123459917
0.3077024131
0.2982672099
0.2849162636
0.2685249496
0.2499002371
0.2297806886
0.2088364601
0.1876693008
0.1668125535
0.1467311541
0.1278211948
0.1104090954
0.0947526409
0.0810412099
0.0693899637
0.0595461382
0.0507532495
0.0419234856
0.0316201490
0.0180574627
-0.0008995248
-0.0276161159
-0.0609270613
-0.0953603043
-0.1234291265
-0.1356820152
-0.1207026627
-0.0654150173
0.0389928769
0.1983875358
0.4079515192
0.6496059756
0.8920106422
1.0905630124
1.1969047216
1.1913675944
1.0757660589
0.8693792187
0.6089506306
0.3471432431
0.1208121310
-0.0542185794
-0.1696764570
-0.2257491309
-0.2310842896
-0.2005561157
-0.1497965026
-0.0938828269
-0.0433240519
-0.0039728763
0.0229742665
0.0406443371
0.0522559268
0.0600727716
0.0659915774
0.0714437936
0.0773956134
0.0843479737
0.0923365553
0.1010971416
0.1108612652
0.1217366589
0.1337751406
0.1470055052
0.1614335246
0.1770419479
0.1937905011
0.2116159072
0.2304355365
0.2502583764
0.2708991370
0.2920726034
0.3134987359
0.3349026702
0.3560147174
0.3765703641
0.3963102724
0.4149802795
0.4323313983
0.4481198170
0.4621068991
0.4740591838
0.4837483855
0.4909513939
0.4954502744
0.4968810006
0.4951247498
0.4904115086
0.4829718012
0.4730359621
0.4608341355
0.4465962754
0.4305521462
0.4129313217
0.3939631862
0.3738769334
0.3529015675
0.3312659022
0.3091985613
0.2869279787
0.2646823981
0.2426898731
0.2211782674
0.2003752545
0.1805083180
0.1618047513
0.1444906977
0.1286268249
0.1141301357
0.1009554710
0.0890546424
0.0783765443
0.0688670528
0.0604689847
0.0531220969
0.0467630867
0.0413255917
0.0367401646
0.0329338855
0.0298304381
0.0273504371
0.0254114374
0.0239279340
0.0228113627
0.0219700992
0.0213653550
0.0209953973
0.0208079369
0.0207584059
0.0208101734
0.0209345455
0.0211107654
0.0213260132
0.0215754060
0.0218619979
0.0221973867
0.0226043067
0.0231144808
0.0237675694
0.0246111699
0.0257008168
0.0270874989
0.0287744592
0.0309899380
0.0339887121
0.0379994867
0.0432248949
0.0498414975
0.0579997838
0.0678241706
0.0794130032
0.0928385544
0.1081470254
0.1253585452
0.1445281459
0.1655730653
0.1876974921
0.2100946241
0.2320139274
0.2527611359
0.2716972741
0.2882338030
0.3018362985
0.3120266013
0.3183828199
0.3205393309
0.3181867791
0.3111021061
0.2996934730
0.2847892381
0.2671772478
0.2475966704
0.2267379957
0.2052430353
0.1837049227
0.1626681130
0.1426283830
0.1240328312
0.1072798780
0.0931494522
0.0819491589
0.0721673478
0.0624085783
0.0514576922
0.0382798137
0.0220212013
0.0020141548
-0.0222263588
-0.0510050825
-0.0844464769
-0.1206164485
-0.1441718857
-0.1384582058
-0.0916363800
0.0033167580
0.1486085119
0.3416303228
0.5750415004
0.8243780222
1.0348509307
1.1629764338
1.1831660540
1.0877266295
0.8903442089
0.6372605559
0.3752089865
0.1390595756
-0.0481949762
-0.1733829044
-0.2333733853
-0.2446673811
-0.2231498277
-0.1823116787
-0.1332479053
-0.0846574850
-0.0428434021
-0.0117126473
0.0078854647
0.0203942864
0.0286708990
0.0347302546
0.0401170983
0.0459059683
0.0527011956
0.0606369048
0.0694091743
0.0790886879
0.0898717426
0.1018122932
0.1149401065
0.1292607610
0.1447556470
0.1613819667
0.1790727343
0.1977367757
0.2172815203
0.2376653940
0.2586282237
0.2798806659
0.3011394058
0.3221271574
0.3425726633
0.3622106949
0.3807820525
0.3980335648
0.4137180895
0.4275945129
0.4394277501
0.4489887448
0.4560544697
0.4604075666
0.4616917506
0.4598578944
0.4551079622
0.4476477197
0.4376867347
0.4254383767
0.4111198168
0.3949520283
0.3771597860
0.3579712895
0.3376147530
0.3163200047
0.2943206483
0.2718540893
0.2491615348
0.2264879940
0.2040822777
0.1821971134
0.1610893847
0.1410198450
0.1222528160
0.1048925148
0.0888719829
0.0741689176
0.0607552567
0.0485971786
0.0376551019
0.0278836860
0.0192318305
0.0116426756
0.0050536021
-0.0006037690
-0.0054035760
-0.0094257167
-0.0127556448
-0.0154822147
-0.0176985230
-0.0195034007
-0.0209984375
-0.0221962410
-0.0231215583
-0.0238258683
-0.0243534909
-0.0247415859
-0.0250201539
-0.0252120358
-0.0253329131
-0.0253913074
-0.0253885810
-0.0253189367
-0.0251694175
-0.0249199071
-0.0245431294
-0.0240046490
-0.0232628706
-0.0222705291
-0.0210278524
-0.0193816241
-0.0171133623
-0.0140186102
-0.0099079567
-0.0046067225
0.0020458111
0.0101964198
0.0199779361
0.0315092493
0.0448953054
0.0602270222
0.0776238308
0.0970853194
0.1179857689
0.1396531776
0.1614318385
0.1826823390
0.2027815615
0.2211226827
0.2371151742
0.2501848019
0.2597736268
0.2653400041
0.2663585840
0.2623061133
0.2534804851
0.2406852110
0.2246838918
0.2061998919
0.1859160449
0.1644735442
0.1424719114
0.1204689963
0.0989809771
0.0784823600
0.0594059795
0.0421429982
0.0270399810
0.0140485465
0.0028406395
-0.0071320782
-0.0168155419
-0.0275532840
-0.0410864338
-0.0595537179
-0.0854403105
-0.1186501531
-0.1541496246
-0.1845988377
-0.2005626255
-0.1905105412
-0.1411988022
-0.0434535550
0.1099836712
0.3153545686
0.5552688326
0.7987042723
1.0010078383
1.1129603862
1.1125992753
1.0002460037
0.7949517909
0.5344974191
0.2727284952
0.0450142695
-0.1317100080
-0.2486140637
-0.3057740816
-0.3121727039
-0.2822149005
-0.2319435638
-0.1764880336
-0.1263624035
-0.0874633696
-0.0610702297
-0.0440807144
-0.0331083303
-0.0260034765
-0.0209331532
-0.0164790932
-0.0116443078
-0.0058533731
0.0010475698
0.0088046111
0.0174351094
0.0271577283
0.0380401105
0.0501240928
0.0634257060
0.0779351748
0.0936169179
0.1104095481
0.1282258722
0.1469528908
0.1664830123
0.1867382283
0.2074205157
0.2282192315
0.2488358767
0.2689840967
0.2883896813
0.3067905646
0.3239365321
0.3395816253
0.3534834421
0.3654112918
0.3751466279
0.3824830483
0.3872262951
0.3891402648
0.3878429943
0.3835109085
0.3764058132
0.3667851598
0.3549020473
0.3410052221
0.3253390778
0.3081436557
0.2896546442
0.2701033793
0.2497168443
0.2287176700
0.2073241345
0.1857501634
0.1642053295
0.1428948533
0.1220196023
0.1017762219
0.0823613270
0.0639724055
0.0468029056
0.0310359431
0.0167110881
0.0037447394
-0.0079465197
-0.0184439177
-0.0278264947
-0.0361711028
-0.0435524057
-0.0500428789
-0.0557128099
-0.0606302977
-0.0648612532
-0.0684693992
-0.0715162702
-0.0740612124
-0.0761613838
-0.0778717543
-0.0792451055
-0.0803320308
-0.0811809355
-0.0818380364
-0.0823473539
-0.0827503681
-0.0830858980
-0.0833863965
-0.0836086527
-0.0837530530
-0.0838351586
-0.0838546542
-0.0837953495
-0.0836252410
-0.0832965247
-0.0827455239
-0.0818926853
-0.0806425788
-0.0788838974
-0.0764894575
-0.0733161985
-0.0692051831
-0.0639815972
-0.0574547498
-0.0494180733
-0.0396491231
-0.0279076347
-0.0139654512
0.0020802422
0.0199923443
0.0394696584
0.0601454438
0.0815914401
0.1033182254
0.1247752160
0.1453506669
0.1643716711
0.1811041605
0.1947529049
0.2044615131
0.2096125628
0.2102206940
0.2064026125
0.1983819106
0.1864890839
0.1711615308
0.1529435532
0.1324863559
0.1105480469
0.0879936373
0.0656776430
0.0439993783
0.0235957334
0.0049507777
-0.0116705496
-0.0262188533
-0.0388578722
-0.0499699541
-0.0601566274
-0.0702386006
-0.0809206525
-0.0938307789
-0.1132724314
-0.1409224968
-0.1753907079
-0.2122197453
-0.2438852496
-0.2597958218
-0.2494555771
-0.1996327920
-0.0956157816
0.0659930172
0.2770554478
0.5178976342
0.7573099810
0.9529955984
1.0593462318
1.0502032481
0.9249333324
0.7084328692
0.4485881329
0.1894974707
-0.0369237761
-0.2101312183
-0.3214848225
-0.3740647436
-0.3760144468
-0.3437342448
-0.2940015624
-0.2398310589
-0.1904746280
-0.1514213976
-0.1242518442
-0.1062920412
-0.0946146668
-0.0868575928
-0.0810924895
-0.0758248253
-0.0699938675
-0.0629726816
-0.0545681313
-0.0450208792
-0.0348219860
-0.0236283282
-0.0112973442
0.0022086887
0.0169039863
0.0327752571
0.0497811366
0.0678521870
0.0868908976
0.1067716844
0.1273408903
0.1484167641
0.1698774126
0.1915248841
0.2129865559
0.2339127606
0.2539780941
0.2728814153
0.2903458460
0.3061187713
0.3199718393
0.3317009611
0.3411263110
0.3480923264
0.3524677075
0.3541454179
0.3530426840
0.3490252372
0.3419660080
0.3321532528
0.3198930719
0.3054828034
0.2892110226
0.2713575426
0.2521934140
0.2319809250
0.2109736011
0.1894162058
0.1675447398
0.1455864414
0.1237597867
0.1022744890
0.0813314994
0.0611230065
0.0418324365
0.0236344531
0.0066949575
-0.0088365416
-0.0229396585
-0.0356903436
-0.0471659947
-0.0574430654
-0.0665970627
-0.0747012632
-0.0818246625
-0.0880347788
-0.0933981859
-0.0979805138
-0.1018464485
-0.1050597321
-0.1076831625
-0.1097785955
-0.1114069510
-0.1126282077
-0.1135013998
-0.1140846179
-0.1144350086
-0.1146087742
-0.1146611735
-0.1146365882
-0.1144736465
-0.1141925281
-0.1138334044
-0.1134213037
-0.1129661112
-0.1124625692
-0.1118902768
-0.1112136908
-0.1103825320
-0.1093325648
-0.1079846253
-0.1062444066
-0.1040024589
-0.1011341893
-0.0974998618
-0.0929445975
-0.0872983746
-0.0803760280
-0.0719772500
-0.0618865894
-0.0498739454
-0.0357845282
-0.0196827966
-0.0017342216
0.0178152467
0.0386391786
0.0603306652
0.0824023179
0.1042862689
0.1253341709
0.1448171970
0.1619260413
0.1757710758
0.1856799755
0.1913838485
0.1926896764
0.1895655471
0.1821406547
0.1707052998
0.1557108888
0.1377699347
0.1176560570
0.0962686139
0.0742858647
0.0524347026
0.0313634392
0.0115812093
-0.0065420288
-0.0227754935
-0.0370275799
-0.0493458596
-0.0599170809
-0.0675013618
-0.0739466957
-0.0833785867
-0.0984276154
-0.1202282599
-0.1484188947
-0.1811412543
-0.2150389860
-0.2452716065
-0.2659685612
-0.2593077900
-0.2085376315
-0.1048465749
0.0526367399
0.2568435222
0.4927648308
0.7367698986
0.9425501643
1.0600614989
1.0630563050
0.9500979081
0.7441974507
0.4874063296
0.2262811049
-0.0043116829
-0.1828138602
-0.3006769979
-0.3546233667
-0.3586512289
-0.3305288979
-0.2849745341
-0.2336564713
-0.1851942483
-0.1451576046
-0.1160661267
-0.0971416449
-0.0840126949
-0.0745709344
-0.0674539420
-0.0615039328
-0.0557677395
-0.0494968173
-0.0421472591
-0.0333797959
-0.0230597967
-0.0112572688
0.0017531428
0.0156143991
0.0306096828
0.0468025958
0.0641557863
0.0826035649
0.1020519041
0.1223784382
0.1434324636
0.1650349388
0.1869785236
0.2090277254
0.2309187679
0.2523595369
0.2730367478
0.2927487188
0.3111724979
0.3279572615
0.3427976428
0.3554337317
0.3656510749
0.3732806755
0.3781989937
0.3803279462
0.3796349063
0.3761327043
0.3698796270
0.3609794179
0.3495812774
0.3358011487
0.3198027296
0.3019440183
0.2825689372
0.2620036889
0.2405567567
0.2185191189
0.1961651731
0.1737519731
0.1515188536
0.1296874296
0.1084615965
0.0880275304
0.0685536875
0.0501908060
0.0330724705
0.0173469310
0.0030252191
-0.0099500372
-0.0216370836
-0.0320950396
-0.0413838989
-0.0495645290
-0.0566986712
-0.0628489409
-0.0680788272
-0.0724526934
-0.0760357764
-0.0788941873
-0.0810949109
-0.0827058061
-0.0837960498
-0.0844383574
-0.0847073064
-0.0846783503
-0.0844278160
-0.0840236639
-0.0833957157
-0.0825714726
-0.0816181782
-0.0805883836
-0.0795199482
-0.0784360390
-0.0773451310
-0.0762410070
-0.0751027580
-0.0738947825
-0.0725667871
-0.0710537862
-0.0692761023
-0.0671393655
-0.0645345139
-0.0613377937
-0.0574107587
-0.0526002707
-0.0467384995
-0.0396773312
-0.0312749168
-0.0212186868
-0.0092838419
0.0046460454
0.0205790301
0.0384147952
0.0579446516
0.0788515369
0.1007099408
0.1229858460
0.1450368493
0.1661150412
0.1855583381
0.2025698138
0.2163734083
0.2263767920
0.2321713662
0.2335322631
0.2304183454
0.2229722067
0.2115201713
0.1965408670
0.1785854532
0.1585294837
0.1372131298
0.1153852989
0.0937052250
0.0727438478
0.0529838199
0.0348195074
0.0185569892
0.0043830789
-0.0077375085
-0.0181021040
-0.0273176670
-0.0363018306
-0.0462829019
-0.0587998621
-0.0757023663
-0.0991507436
-0.1310007821
-0.1666833665
-0.1973133820
-0.2131359805
-0.2035595055
-0.1571554925
-0.0618334679
0.0891417522
0.2904182968
0.5255844271
0.7671635791
0.9766141199
1.1043070475
1.1088673821
1.0015182052
0.8083880471
0.5614357405
0.2984504208
0.0628149987
-0.1172597345
-0.2383348117
-0.3015309214
-0.3133608087
-0.2857292753
-0.2358372044
-0.1802744835
-0.1283781057
-0.0859513391
-0.0555483143
-0.0364740251
-0.0247848958
-0.0160488426
-0.0090995997
-0.0028236337
0.0036168775
0.0107864331
0.0189750971
0.0281969778
0.0383530911
0.0496015436
0.0620137338
0.0756312504
0.0904692486
0.1065164498
0.1237351415
0.1420611777
0.1614039786
0.1816465306
0.2026455044
0.2243133823
0.2464364364
0.2686917184
0.2907688270
0.3123699082
0.3332096555
0.3530153095
0.3715266579
0.3884960359
0.4036883260
0.4168804746
0.4278563468
0.4364087184
0.4423428515
0.4454159712
0.4452793907
0.4421080119
0.4361424885
0.4276217958
0.4167832108
0.4038622434
0.3890926998
0.3727067075
0.3549347155
0.3360054941
0.3161461348
0.2955820509
0.2745369767
0.2532329680
0.2318904021
0.2107279775
0.1899627142
0.1698099536
0.1504833584
0.1321949127
0.1151554154
0.0994961065
0.0851468059
0.0720601195
0.0601877911
0.0494796576
0.0398836490
0.0313457880
0.0238101906
0.0172190653
0.0115127140
0.0066295314
0.0025060050
-0.0009232845
-0.0037256635
-0.0059703655
-0.0077285311
-0.0090732078
-0.0100793501
-0.0108238198
-0.0113377032
-0.0115863129
-0.0116201819
-0.0114828513
-0.0112072793
-0.0108161398
-0.0103262495
-0.0097476163
-0.0090797709
-0.0083116611
-0.0074216519
-0.0063775256
-0.0051364819
-0.0036451375
-0.0018395274
0.0003548904
0.0030232379
0.0062612197
0.0100842395
0.0146715212
0.0203832495
0.0275132071
0.0362880517
0.0468673160
0.0593434083
0.0737416115
0.0900200840
0.1080698593
0.1277148460
0.1487118279
0.1707540820
0.1936521172
0.2165694813
0.2384562802
0.2584056660
0.2756538370
0.2895800376
0.2997065585
0.3056987365
0.3073649546
0.3046566421
0.2976682743
0.2866373730
0.2719290928
0.2539455858
0.2336196599
0.2119124084
0.1896612805
0.1675800814
0.1462589725
0.1261644713
0.1076394512
0.0909031418
0.0760511288
0.0630553538
0.0517641621
0.0419748513
0.0339003236
0.0245300309
0.0109370707
-0.0085438281
-0.0343163055
-0.0655223703
-0.1000423998
-0.1349326560
-0.1581846540
-0.1528823276
-0.1068010431
-0.0125439167
0.1324581851
0.3259466460
0.5609773445
0.8108693908
1.0212022528
1.1498362091
1.1713641534
1.0771115946
0.8804908557
0.6286136994
0.3674151675
0.1313924964
-0.0563977334
-0.1838185139
-0.2508266573
-0.2678296955
-0.2467775656
-0.2006418328
-0.1434156909
-0.0898615291
-0.0477882702
-0.0167655817
0.0045669804
0.0182682758
0.0270955803
0.0342302517
0.0409920743
0.0478658195
0.0552659435
0.0634939421
0.0727383513
0.0830747469
0.0944737454
0.1069655181
0.1206135825
0.1354413586
0.1514432578
0.1685874971
0.1868167207
0.2060446897
0.2261560700
0.2470064324
0.2684222525
0.2902009107
0.3121455629
0.3341311493
0.3557890581
0.3767453716
0.3966572552
0.4152129871
0.4321319580
0.4471646716
0.4600927438
0.4707289034
0.4789169919
0.4845319631
0.4874798839
0.4876979335
0.4851544039
0.4798473809
0.4716470077
0.4607045716
0.4473641138
0.4319536038
0.4147877250
0.3961680874
0.3763832272
0.3557086068
0.3344066152
0.3127265672
0.2909047043
0.2691641943
0.2477151310
0.2267545347
0.2064663519
0.1870214557
0.1685776450
0.1512796454
0.1352591086
0.1206156479
0.1073279064
0.0953319183
0.0845625251
0.0749534155
0.0664371263
0.0589450417
0.0524074293
0.0467553741
0.0419217630
0.0378385740
0.0344366324
0.0316456114
0.0293940317
0.0276092618
0.0262175177
0.0251438696
0.0243127156
0.0236743102
0.0232510349
0.0229966923
0.0228672000
0.0228281170
0.0228546443
0.0229316245
0.0230535421
0.0232245232
0.0234583356
0.0237783891
0.0242177349
0.0248190663
0.0256347181
0.0267266385
0.0281643194
0.0300233899
0.0323732032
0.0352214343
0.0388564835
0.0435845740
0.0496605156
0.0572877043
0.0666181227
0.0777523400
0.0907395116
0.1055773795
0.1222122721
0.1405391042
0.1604013773
0.1816803380
0.2040395691
0.2264767047
0.2480569390
0.2679555437
0.2854578689
0.2999593424
0.3109654699
0.3180918354
0.3210641225
0.3197203930
0.3140130682
0.3040051147
0.2898437886
0.2722365832
0.2521486301
0.2304518999
0.2079247719
0.1852520334
0.1630246049
0.1417390811
0.1217983441
0.1035116844
0.0870948013
0.0726698022
0.0603242784
0.0500784178
0.0405852902
0.0303190553
0.0178143777
0.0016664270
-0.0194691221
-0.0468760902
-0.0815163717
-0.1180216183
-0.1452785934
-0.1522939381
-0.1284006440
-0.0632574309
0.0531922432
0.2276748241
0.4470231595
0.6870635106
0.9165019965
1.0969245938
1.1827938782
1.1397232663
0.9902935112
0.7696987323
0.5135775662
0.2580131668
0.0394301151
-0.1195489497
-0.2192775716
-0.2643644957
-0.2631121803
-0.2275167972
-0.1732682317
-0.1181001454
-0.0703907360
-0.0329328454
-0.0065583216
0.0099026690
0.0196210084
0.0267942373
0.0327582221
0.0383398775
0.0441978696
0.0507864584
0.0583556606
0.0669517922
0.0765076695
0.0871414766
0.0989213945
0.1118843557
0.1260407931
0.1413746395
0.1578433277
0.1753777909
0.1938824619
0.2132352741
0.2332876606
0.2539570047
0.2750413040
0.2962033982
0.3171212246
0.3374864017
0.3570061583
0.3754037020
0.3924182202
0.4078048794
0.4213348254
0.4327951835
0.4419890583
0.4487355338
0.4528696730
0.4542425187
0.4525384490
0.4475545405
0.4396011112
0.4289877659
0.4160144683
0.4009715416
0.3841396681
0.3657898892
0.3461836057
0.3255725774
0.3041989234
0.2822951221
0.2600840111
0.2377789354
0.2155840325
0.1936938784
0.1722934080
0.1515579154
0.1316530540
0.1127348365
0.0949496346
0.0784341794
0.0633154632
0.0496811596
0.0374725531
0.0265927545
0.0169482582
0.0084488619
0.0010076661
-0.0054589254
-0.0110312060
-0.0157861659
-0.0197974921
-0.0231355688
-0.0258674770
-0.0280569946
-0.0297645966
-0.0310474547
-0.0319595391
-0.0325518505
-0.0328721550
-0.0329649159
-0.0328712930
-0.0326291436
-0.0322730214
-0.0318341773
-0.0313402088
-0.0307626613
-0.0300949655
-0.0293588457
-0.0285584521
-0.0276803611
-0.0266935749
-0.0255495218
-0.0241820561
-0.0225074579
-0.0204244335
-0.0178141151
-0.0145400610
-0.0104482553
-0.0053671082
0.0008925440
0.0085374393
0.0177920340
0.0291262039
0.0429154457
0.0588325058
0.0765165559
0.0955878918
0.1156479324
0.1362792203
0.1570454219
0.1774913563
0.1971433397
0.2155090664
0.2320773590
0.2463181638
0.2576825505
0.2656027126
0.2694919669
0.2687447539
0.2628364245
0.2522364350
0.2378247873
0.2204145106
0.2007659210
0.1795866218
0.1575315035
0.1352027381
0.1131497618
0.0918692917
0.0718053323
0.0533491751
0.0368393986
0.0226133913
0.0105880082
-0.0000517690
-0.0102719579
-0.0211652937
-0.0339512293
-0.0499759355
-0.0707123007
-0.0977599308
-0.1340781761
-0.1773169013
-0.2102829294
-0.2182250701
-0.1901008369
-0.1185764474
-0.0000268229
0.1654644109
0.3741049247
0.6172736669
0.8572258274
1.0391185854
1.1257062628
1.0989156041
0.9598289734
0.7348814639
0.4734338405
0.2172474471
-0.0035786887
-0.1706078512
-0.2752320434
-0.3230963494
-0.3261361373
-0.2966373911
-0.2472367118
-0.1909213163
-0.1409310859
-0.1040379076
-0.0781376630
-0.0608398724
-0.0497851566
-0.0426452370
-0.0371229350
-0.0315467817
-0.0255822238
-0.0189891899
-0.0115702548
-0.0031709360
0.0063201613
0.0169713437
0.0288078294
0.0418277122
0.0560859442
0.0715580417
0.0881838290
0.1058814037
0.1245471367
0.1440556726
0.1642599291
0.1849910975
0.2060586425
0.2272503021
0.2483320880
0.2690482850
0.2891214514
0.3082524191
0.3261202931
0.3423824521
0.3567308711
0.3690146153
0.3790053661
0.3865087550
0.3913764230
0.3935067503
0.3928448567
0.3893826022
0.3831585868
0.3742581505
0.3628133732
0.3490030723
0.3330526316
0.3152338950
0.2958654205
0.2751914640
0.2534503969
0.2309888104
0.2081254168
0.1851509281
0.1623280557
0.1398915105
0.1180480031
0.0969762435
0.0768269412
0.0577228054
0.0397585446
0.0230014845
0.0074951689
-0.0067377564
-0.0196142236
-0.0311758902
-0.0415131232
-0.0507129957
-0.0588592876
-0.0660324845
-0.0723097786
-0.0777650686
-0.0824689590
-0.0864887610
-0.0898884919
-0.0927288755
-0.0950673416
-0.0969580266
-0.0984517730
-0.0995961296
-0.1004353516
-0.1010104006
-0.1013589441
-0.1015153563
-0.1015107175
-0.1013728144
-0.1011008209
-0.1006666252
-0.1001050313
-0.0994378594
-0.0986704725
-0.0977917764
-0.0967742195
-0.0955737930
-0.0941300308
-0.0923660093
-0.0901882478
-0.0874865540
-0.0841342389
-0.0799881559
-0.0748887012
-0.0686598139
-0.0611089757
-0.0520272111
-0.0411890486
-0.0283659232
-0.0135400135
0.0031622447
0.0215413260
0.0413246154
0.0621664082
0.0836484351
0.1052839881
0.1265157008
0.1467131382
0.1651727758
0.1811179992
0.1936991046
0.2021014165
0.2061149022
0.2056913194
0.2008941436
0.1919163273
0.1790803004
0.1628379702
0.1437707214
0.1225894160
0.1001343933
0.0773198446
0.0547039785
0.0329316506
0.0125524697
-0.0060512489
-0.0226644832
-0.0372395045
-0.0498958778
-0.0609208486
-0.0707728933
-0.0794853629
-0.0879856586
-0.1010213035
-0.1213893711
-0.1495395902
-0.1835743455
-0.2192486776
-0.2499702826
-0.2686696019
-0.2647420344
-0.2175205576
-0.1151117098
0.0443423049
0.2526636168
0.4916386910
0.7330183267
0.9378458339
1.0602020995
1.0717288210
0.9674583212
0.7656711261
0.5078959648
0.2460730602
0.0118375641
-0.1733136836
-0.2984393724
-0.3631613367
-0.3764209271
-0.3504252446
-0.3029779670
-0.2487385473
-0.1981389605
-0.1573837040
-0.1284497973
-0.1090804441
-0.0960108224
-0.0872959605
-0.0812763476
-0.0765600177
-0.0720225492
-0.0668070654
-0.0603242340
-0.0522522671
-0.0425369217
-0.0313914993
-0.0192942843
-0.0062574389
0.0080456748
0.0236213383
0.0404406343
0.0584411524
0.0775313190
0.0975904950
0.1184689761
0.1399879928
0.1619397102
0.1840872280
0.2061645807
0.2278841046
0.2490532220
0.2693353174
0.2883614565
0.3058016426
0.3213648179
0.3347988623
0.3458905943
0.3544657703
0.3603890851
0.3635641718
0.3639336015
0.3614788837
0.3562204662
0.3482149146
0.3374322805
0.3240809393
0.3084956080
0.2909994855
0.2719041248
0.2515094330
0.2301036710
0.2079634541
0.1853537516
0.1625278865
0.1397275365
0.1171827328
0.0951118609
0.0737216605
0.0532072251
0.0337520024
0.0155282240
-0.0013214504
-0.0167946125
-0.0309278336
-0.0437605452
-0.0553350398
-0.0656964704
-0.0748928506
-0.0829750545
-0.0899970165
-0.0960192902
-0.1011086387
-0.1053348030
-0.1087703845
-0.1114908453
-0.1135745081
-0.1151025564
-0.1161590340
-0.1168308456
-0.1172077535
-0.1173588405
-0.1172266755
-0.1168617397
-0.1163280715
-0.1156780423
-0.1149523563
-0.1141800506
-0.1133784952
-0.1125533931
-0.1116987799
-0.1107970245
-0.1098188283
-0.1087232258
-0.1074575844
-0.1059575586
-0.1041461069
-0.1019335025
-0.0992183085
-0.0958874204
-0.0918160669
-0.0869493046
-0.0811001252
-0.0738916079
-0.0650332772
-0.0543236962
-0.0416504665
-0.0269902282
-0.0104086600
0.0079395209
0.0278105589
0.0488716598
0.0707009906
0.0927876803
0.1145825768
0.1352854779
0.1540065191
0.1699905971
0.1826177045
0.1914029304
0.1959965206
0.1961854775
0.1918937234
0.1831642387
0.1704021000
0.1542977867
0.1355428181
0.1148249946
0.0928283978
0.0702333906
0.0477166168
0.0259509932
0.0054170637
-0.0137726815
-0.0309719428
-0.0458243840
-0.0583313283
-0.0688517581
-0.0781023152
-0.0871573006
-0.0974486747
-0.1107660571
-0.1292567268
-0.1606488895
-0.2048042925
-0.2477606025
-0.2774360304
-0.2837543179
-0.2586418694
-0.1960275671
-0.0918427706
0.0559786827
0.2475004775
0.4806128666
0.7296609888
0.9363028605
1.0568627647
1.0673803400
0.9636105811
0.7622547124
0.5078048388
0.2469129931
0.0139709955
-0.1690180305
-0.2914696692
-0.3496694142
-0.3586749492
-0.3346984718
-0.2915004763
-0.2403897540
-0.1902233665
-0.1474055397
-0.1158872624
-0.0957543599
-0.0825497453
-0.0736687843
-0.0670605715
-0.0611524441
-0.0548499819
-0.0475370075
-0.0390755849
-0.0297882490
-0.0196531688
-0.0084305037
0.0039430039
0.0175052061
0.0322685500
0.0482200774
0.0653214248
0.0835088234
0.1026930993
0.1227596731
0.1435702965
0.1650824950
0.1870692142
0.2091886496
0.2311153691
0.2525405537
0.2731713401
0.2927307604
0.3109577428
0.3276071112
0.3424495851
0.3552717801
0.3658762075
0.3740812743
0.3797212835
0.3826464337
0.3827061398
0.3795141557
0.3731997888
0.3640855013
0.3524836202
0.3386963371
0.3230157082
0.3057236544
0.2870919614
0.2673822793
0.2468461231
0.2257248724
0.2042497560
0.1826407152
0.1611056233
0.1398420332
0.1190373626
0.0988688939
0.0795037741
0.0610990150
0.0438014929
0.0277479487
0.0130649878
-0.0001372810
-0.0118751966
-0.0222536504
-0.0313752322
-0.0393385414
-0.0462381869
-0.0521647872
-0.0572049704
-0.0614413742
-0.0649526459
-0.0678134421
-0.0700944294
-0.0718622836
-0.0731796903
-0.0741053310
-0.0746924604
-0.0749876565
-0.0750332118
-0.0748674286
-0.0745246188
-0.0740351038
-0.0734252145
-0.0727172916
-0.0719296852
-0.0710767549
-0.0701688701
-0.0692124095
-0.0681932983
-0.0670721638
-0.0658233104
-0.0644033064
-0.0627501260
-0.0607831504
-0.0584031669
-0.0554923695
-0.0519143584
-0.0475141405
-0.0421181291
-0.0355341439
-0.0275514207
-0.0179421361
-0.0065347993
0.0067688919
0.0220442464
0.0392609456
0.0582827579
0.0788675383
0.1006672288
0.1232278579
0.1459895411
0.1682866300
0.1893481472
0.2083030409
0.2244638741
0.2372103959
0.2459965928
0.2504614489
0.2504289459
0.2459080628
0.2370927762
0.2243620602
0.2082798864
0.1895947647
0.1690081893
0.1472717782
0.1252008820
0.1034885115
0.0827032450
0.0632888803
0.0455644347
0.0297241451
0.0158374677
0.0038490782
-0.0058372192
-0.0141680667
-0.0234687274
-0.0355894081
-0.0518979985
-0.0732800713
-0.1001388821
-0.1323953696
-0.1701599631
-0.2037596430
-0.2158246007
-0.1930464234
-0.1264031058
-0.0111590507
0.1531349310
0.3626416207
0.6075536099
0.8480872367
1.0323690984
1.1241151750
1.1033450699
0.9670526739
0.7450219104
0.4860317732
0.2303049026
0.0083319811
-0.1591611760
-0.2651628228
-0.3151947225
-0.3182435159
-0.2860883711
-0.2333009820
-0.1768956319
-0.1278669610
-0.0888578021
-0.0605962475
-0.0421432095
-0.0308924209
-0.0227753689
-0.0156342985
-0.0088193260
-0.0017193889
0.0061135206
0.0149616491
0.0249448330
0.0360233092
0.0481923356
0.0615449884
0.0761200823
0.0919281093
0.1089512388
0.1271433172
0.1464298682
0.1667080928
0.1878468693
0.2096867529
0.2320399765
0.2546981801
0.2775381223
0.3002434513
0.3224449891
0.3437991148
0.3639877643
0.3827184303
0.3997241627
0.4147635679
0.4276208101
0.4381074088
0.4460663945
0.4513675839
0.4539063511
0.4536036267
0.4503491433
0.4439140854
0.4345699277
0.4226484412
0.4084700662
0.3923439282
0.3745679912
0.3554289945
0.3352023488
0.3141521340
0.2925310998
0.2705806654
0.2485309197
0.2266006210
0.2049971971
0.1839167457
0.1635440337
0.1440524979
0.1256042443
0.1083500487
0.0924278036
0.0779550416
0.0649493907
0.0533306667
0.0430154646
0.0339217732
0.0259689759
0.0190778500
0.0131705674
0.0081706939
0.0040031898
0.0005944095
-0.0021278982
-0.0042345906
-0.0057951304
-0.0068775862
-0.0075486323
-0.0078735489
-0.0079162219
-0.0077391429
-0.0074034092
-0.0069687241
-0.0064410900
-0.0057761683
-0.0050396613
-0.0042846059
-0.0035435390
-0.0028320232
-0.0021499028
-0.0014813049
-0.0007946383
-0.0000425943
0.0008378536
0.0019254499
0.0033146565
0.0051156597
0.0074544957
0.0104730458
0.0143289143
0.0191954233
0.0252616126
0.0327003206
0.0416522710
0.0523817082
0.0650622961
0.0797588165
0.0964271695
0.1149143731
0.1349585633
0.1561889943
0.1781254510
0.2001760518
0.2216392076
0.2417376183
0.2598371622
0.2751357853
0.2869435392
0.2947516777
0.2982326565
0.2972401334
0.2918089685
0.2821552238
0.2686761635
0.2519502539
0.2327371634
0.2117784681
0.1897452552
0.1674771677
0.1456808367
0.1249265504
0.1056482540
0.0881435496
0.0725736960
0.0589636094
0.0472018625
0.0370408963
0.0282295431
0.0193596053
0.0082251063
-0.0069858069
-0.0276799976
-0.0548593395
-0.0889551443
-0.1247673813
-0.1520283999
-0.1601390311
-0.1383051320
-0.0755377286
0.0390252365
0.2089240504
0.4245830222
0.6655902919
0.9008142978
1.0884037764
1.1768524982
1.1427346128
1.0053417412
0.7918864691
0.5355748218
0.2756062636
0.0546171137
-0.1099063588
-0.2154594955
-0.2643261624
-0.2645240346
-0.2298045967
-0.1777736311
-0.1217568184
-0.0710099370
-0.0310234706
-0.0035093785
0.0135989044
0.0252654595
0.0338007051
0.0406645859
0.0470620569
0.0538417716
0.0614960819
0.0701610382
0.0796892726
0.0902077134
0.1018181014
0.1145695118
0.1284879765
0.1435764843
0.1598152747
0.1771635618
0.1955583641
0.2149136600
0.2351857188
0.2562826512
0.2779213158
0.2998203005
0.3217037210
0.3433012209
0.3643479729
0.3845849807
0.4037594775
0.4216243229
0.4379379045
0.4524641377
0.4649724660
0.4752378605
0.4830408202
0.4881673723
0.4902900361
0.4892473927
0.4852492337
0.4785113570
0.4692512319
0.4576876387
0.4440382101
0.4285209254
0.4113554281
0.3927630334
0.3729667284
0.3521911719
0.3306626944
0.3086092984
0.2862606582
0.2638481196
0.2416047005
0.2197650904
0.1985656508
0.1782444147
0.1590410872
0.1411897103
0.1247099015
0.1095372286
0.0956385204
0.0829760121
0.0715073449
0.0611855662
0.0519591294
0.0437718943
0.0365636352
0.0302740635
0.0248406760
0.0201963965
0.0162695550
0.0129838877
0.0102585369
0.0080080511
0.0061423849
0.0045798612
0.0033256008
0.0023441749
0.0015921290
0.0010326039
0.0006355218
0.0003775868
0.0002422845
0.0002198823
0.0003074290
0.0005087554
0.0008344736
0.0013019778
0.0019354435
0.0027658279
0.0038308701
0.0051745757
0.0067971319
0.0087757550
0.0113106395
0.0145918724
0.0187985564
0.0240988093
0.0306497647
0.0385975716
0.0480773943
0.0592134127
0.0721188223
0.0868958339
0.1036356738
0.1225135133
0.1433149891
0.1653606844
0.1879853367
0.2105426727
0.2324054077
0.2529652463
0.2716328816
0.2878379958
0.3010292600
0.3106743342
0.3162602016
0.3172967763
0.3132433390
0.3042883151
0.2913257227
0.2751978019
0.2566848507
0.2365052244
0.2153153359
0.1937096558
0.1722207120
0.1513192071
0.1314146171
0.1128547465
0.0959254580
0.0808506718
0.0677923655
0.0569987839
0.0477669510
0.0383442611
0.0271277517
0.0126845631
-0.0062480616
-0.0307627767
-0.0617821335
-0.0987232524
-0.1322234840
-0.1504405675
-0.1423864448
-0.0979275983
-0.0077850503
0.1367800904
0.3384802562
0.5736239365
0.8113543812
1.0178778903
1.1564638145
1.1874652928
1.0893348062
0.8974284712
0.6535173954
0.3949266212
0.1545351258
-0.0392734469
-0.1713781042
-0.2449217621
-0.2670540311
-0.2482747604
-0.2024340383
-0.1465879911
-0.0943116261
-0.0507249651
-0.0181882656
0.0033078604
0.0161424084
0.0247260281
0.0314495608
0.0373012863
0.0431341301
0.0495527135
0.0569133541
0.0653240083
0.0746948586
0.0851243436
0.0967001355
0.1094670218
0.1234446203
0.1386273790
0.1549845761
0.1724603203
0.1909735503
0.2104180352
0.2306662436
0.2516677679
0.2731881791
0.2949126036
0.3165364147
0.3377653161
0.3583160315
0.3779163296
0.3963050242
0.4132319746
0.4284580847
0.4417553040
0.4529066269
0.4617060929
0.4679587867
0.4714808383
0.4719325807
0.4691525513
0.4633993036
0.4549310417
0.4440022258
0.4308635722
0.4157620533
0.3989408980
0.3806395909
0.3610938732
0.3405357420
0.3191934507
0.2972915103
0.2750507252
0.2526881930
0.2304172688
0.2084475640
0.1869849460
0.1662315385
0.1463857215
0.1276421309
0.1101916588
0.0941916110
0.0796002039
0.0663416505
0.0543461443
0.0435443008
0.0338671410
0.0252460915
0.0176129845
0.0109000577
0.0050399544
-0.0000342768
-0.0043891815
-0.0080908998
-0.0112051662
-0.0137973098
-0.0159322288
-0.0176737138
-0.0190843762
-0.0202263817
-0.0211614906
-0.0219510575
-0.0226232603
-0.0231054595
-0.0234494599
-0.0237085711
-0.0239210363
-0.0241100329
-0.0242836722
-0.0244349994
-0.0245419937
-0.0245675682
-0.0244595699
-0.0241507799
-0.0235589132
-0.0225866185
-0.0211214789
-0.0190360111
-0.0161876659
-0.0124188279
-0.0075568158
-0.0014248737
0.0060974177
0.0152860601
0.0263661354
0.0394573616
0.0545740932
0.0716253211
0.0904146724
0.1106404108
0.1318954362
0.1536672849
0.1753381227
0.1963379417
0.2159133896
0.2331313020
0.2472298898
0.2576198278
0.2638842538
0.2657787695
0.2632314399
0.2563427934
0.2453858221
0.2308059813
0.2131722087
0.1930537338
0.1713570833
0.1489277988
0.1264959014
0.1046756427
0.0839654864
0.0647481075
0.0472903927
0.0317434406
0.0181425610
0.0064089479
-0.0032216428
-0.0120547765
-0.0221159905
-0.0350976761
-0.0523590789
-0.0749262983
-0.1034922880
-0.1386477585
-0.1765508088
-0.2032851623
-0.2060080630
-0.1742055877
-0.0996926462
0.0233870192
0.1985608328
0.4297542910
0.6854476482
0.9114655517
1.0675188459
1.1275886144
1.0799261800
0.9270531048
0.6935493393
0.4295480988
0.1761041494
-0.0375313251
-0.1938889732
-0.2872810518
-0.3238011544
-0.3151495511
-0.2756600272
-0.2224127038
-0.1682384013
-0.1217088209
-0.0871365455
-0.0645750394
-0.0500690481
-0.0402766630
-0.0334935710
-0.0282076725
-0.0232414981
-0.0177513241
-0.0112265585
-0.0034911059
0.0052964871
0.0149521560
0.0257285824
0.0376899430
0.0508693022
0.0652724050
0.0808776775
0.0976362265
0.1154718399
0.1342809862
0.1539328151
0.1742691568
0.1951596293
0.2164438952
0.2377801812
0.2588382218
0.2793052772
0.2988861335
0.3173031031
0.3342960239
0.3496222598
0.3630566774
0.3743891341
0.3834222512
0.3899756505
0.3938864797
0.3950045338
0.3929065501
0.3876119723
0.3794340269
0.3686762781
0.3556326275
0.3405873141
0.3238147325
0.3055789688
0.2861343036
0.2657253549
0.2445870783
0.2229447667
0.2010140506
0.1790008978
0.1571016138
0.1355028414
0.1143815610
0.0939050902
0.0742310844
0.0555075594
0.0378766381
0.0214786894
0.0064451311
-0.0071656834
-0.0194350488
-0.0304580673
-0.0403258711
-0.0491256216
-0.0569405103
-0.0638497581
-0.0699286155
-0.0752483629
-0.0798763101
-0.0838757968
-0.0873061920
-0.0902228948
-0.0926773335
-0.0947169665
-0.0963852814
-0.0977217959
-0.0987620570
-0.0995376415
-0.1000761559
-0.1004012363
-0.1005325606
-0.1004891462
-0.1002938085
-0.0999665058
-0.0995232265
-0.0989535034
-0.0982310440
-0.0973448598
-0.0962653322
-0.0949439825
-0.0933134729
-0.0912876058
-0.0887611994
-0.0856094868
-0.0816885798
-0.0768357303
-0.0708693308
-0.0635889139
-0.0547751531
-0.0442242070
-0.0318301488
-0.0175054804
-0.0012598162
0.0167948283
0.0364440370
0.0573709955
0.0791578321
0.1012878090
0.1231423622
0.1440005269
0.1630389374
0.1793640183
0.1923881458
0.2015731967
0.2065056886
0.2069591831
0.2028942854
0.1944586446
0.1819869539
0.1660009500
0.1472094136
0.1263348020
0.1041251372
0.0814091268
0.0588973787
0.0371822488
0.0167378410
-0.0020799927
-0.0190336519
-0.0340037886
-0.0467102958
-0.0567444292
-0.0659719587
-0.0761989973
-0.0889059866
-0.1052476964
-0.1260532252
-0.1518260000
-0.1827437760
-0.2195469734
-0.2601739959
-0.2834670128
-0.2713804846
-0.2123520047
-0.1013020705
0.0603662173
0.2647671584
0.4975324530
0.7374247665
0.9418181798
1.0592640813
1.0618933708
0.9471422300
0.7377521226
0.4800250022
0.2195543561
-0.0103873529
-0.1880340805
-0.3037358394
-0.3598818468
-0.3645061742
-0.3336415655
-0.2844986053
-0.2304345573
-0.1809533637
-0.1417056459
-0.1143806912
-0.0963315549
-0.0846110282
-0.0768753161
-0.0711991635
-0.0660758558
-0.0604172186
-0.0535536176
-0.0452339590
-0.0356256890
-0.0252571204
-0.0139462404
-0.0014555172
0.0122553898
0.0271978505
0.0433542300
0.0606777962
0.0790928163
0.0984945867
0.1187494326
0.1396947083
0.1611387971
0.1829139332
0.2048587974
0.2265982055
0.2477697370
0.2680366612
0.2870881394
0.3046392005
0.3204305572
0.3342286002
0.3458253979
0.3550386965
0.3617119200
0.3657141701
0.3669402264
0.3653105461
0.3606593352
0.3529222849
0.3424131001
0.3294451657
0.3143237465
0.2973451555
0.2787964561
0.2589554611
0.2380907337
0.2164615866
0.1943180827
0.1719010347
0.1494420052
0.1271633069
0.1052780022
0.0839899036
0.0634935732
0.0439743235
0.0256082165
0.0085620643
-0.0070217437
-0.0211491555
-0.0338976336
-0.0453436940
-0.0555625269
-0.0646279971
-0.0726126434
-0.0795876795
-0.0856232521
-0.0907894180
-0.0951552756
-0.0987885981
-0.1017558331
-0.1041221023
-0.1059512023
-0.1073056036
-0.1082464513
-0.1088335650
-0.1091254385
-0.1091792408
-0.1090508421
-0.1087948236
-0.1084613166
-0.1080201065
-0.1074788886
-0.1068676911
-0.1062022809
-0.1054841634
-0.1047005826
-0.1038245210
-0.1028146998
-0.1016155787
-0.1001573559
-0.0983559411
-0.0961128369
-0.0933152355
-0.0898360676
-0.0855340025
-0.0802534482
-0.0738245510
-0.0660631960
-0.0567710068
-0.0457353456
-0.0327293131
-0.0174677619
-0.0000642399
0.0190909587
0.0395728883
0.0609219543
0.0826439134
0.1042098733
0.1250562929
0.1445849823
0.1621631029
0.1771231670
0.1887630383
0.1963459314
0.1991167464
0.1968767699
0.1901231310
0.1794050997
0.1652856258
0.1483413384
0.1291625459
0.1083532355
0.0865310740
0.0643274071
0.0423872596
0.0213693358
0.0019460187
-0.0150182908
-0.0292668916
-0.0415959277
-0.0528291033
-0.0637953776
-0.0753289656
-0.0882693374
-0.1034612187
-0.1217545906
-0.1440046895
-0.1710720073
-0.2038230920
-0.2402297202
-0.2648062384
-0.2615701761
-0.2187780358
-0.1289245180
0.0112574822
0.2007968748
0.4346494478
0.6859187761
0.8996409474
1.0334491966
1.0613044144
0.9734951479
0.7809716642
0.5300718380
0.2685414566
0.0320162342
-0.1559965128
-0.2831149743
-0.3430523511
-0.3518441678
-0.3272732502
-0.2841153108
-0.2341389491
-0.1861056514
-0.1457697907
-0.1158784461
-0.0961701637
-0.0831933526
-0.0733862169
-0.0656365583
-0.0590411788
-0.0528294970
-0.0463635486
-0.0391379862
-0.0307800792
-0.0210497141
-0.0098393940
0.0028257612
0.0167880166
0.0317647133
0.0478181332
0.0650531162
0.0833858532
0.1027090357
0.1228918561
0.1437800076
0.1651956840
0.1869375799
0.2087808908
0.2304773127
0.2517550153
0.2723184237
0.2918483346
0.3100020440
0.3264949821
0.3411190782
0.3535886257
0.3636651914
0.3711597222
0.3759325450
0.3778933674
0.3770012768
0.3732647409
0.3667416079
0.3575391059
0.3458138433
0.3317718089
0.3156683715
0.2978082803
0.2785016144
0.2579367315
0.2364612057
0.2144184327
0.1921234306
0.1698628407
0.1478948160
0.1264479914
0.1057219540
0.0858879049
0.0670886681
0.0494386903
0.0330240414
0.0179024138
0.0041143758
-0.0082261251
-0.0191740335
-0.0288303281
-0.0372923084
-0.0446536000
-0.0510041498
-0.0564302242
-0.0610144083
-0.0648356063
-0.0679690415
-0.0704862561
-0.0724551116
-0.0739397882
-0.0750007854
-0.0756949215
-0.0760753340
-0.0761913071
-0.0760863981
-0.0757991441
-0.0753643780
-0.0748132516
-0.0741732359
-0.0734681207
-0.0727180152
-0.0719243048
-0.0710422388
-0.0700800687
-0.0690341690
-0.0678810737
-0.0665774761
-0.0650602288
-0.0632463439
-0.0610329928
-0.0582975061
-0.0548973741
-0.0506702462
-0.0454339313
-0.0389863976
-0.0311057728
-0.0216020388
-0.0103403137
0.0028671977
0.0181000112
0.0353239167
0.0543926041
0.0750477010
0.0969187726
0.1195233219
0.1422667893
0.1644425530
0.1852319289
0.2038116405
0.2195436229
0.2317218847
0.2398203960
0.2435066927
0.2426418982
0.2372807238
0.2276714683
0.2142560184
0.1976698485
0.1786146302
0.1578074731
0.1361291569
0.1143463733
0.0931061596
0.0729360186
0.0542457379
0.0373270202
0.0223519587
0.0093729921
-0.0008860818
-0.0091019048
-0.0176146898
-0.0282988393
-0.0425559745
-0.0613149359
-0.0850317823
-0.1136897918
-0.1467994611
-0.1857407886
-0.2169399362
-0.2182826134
-0.1747802976
-0.0786421201
0.0707251337
0.2667170244
0.4955314586
0.7361686887
0.9542248139
1.0964908399
1.1288205182
1.0421226604
0.8523163638
0.6003298113
0.3380340460
0.0991660307
-0.0926506902
-0.2247087272
-0.2952168464
-0.3127340386
-0.2891072183
-0.2419376994
-0.1866467159
-0.1342893407
-0.0915545096
-0.0607651486
-0.0399954481
-0.0259399998
-0.0163945036
-0.0095238428
-0.0038280183
0.0018578516
0.0083635311
0.0161836669
0.0254777882
0.0360703299
0.0474848357
0.0598488015
0.0733944465
0.0881482860
0.1041075660
0.1212402632
0.1394850848
0.1587514689
0.1789195842
0.1998403301
0.2213353368
0.2431969649
0.2652723652
0.2873341960
0.3090049201
0.3299328842
0.3497931250
0.3682873696
0.3851440353
0.4001182294
0.4129917498
0.4235730844
0.4316974113
0.4372265990
0.4400492087
0.4400805660
0.4372454647
0.4312841836
0.4223841810
0.4108794989
0.3970926876
0.3813348055
0.3639054187
0.3450926014
0.3251729361
0.3044115130
0.2830619253
0.2613660809
0.2395541446
0.2178447728
0.1964451299
0.1755508884
0.1553462286
0.1360038389
0.1176849158
0.1005391638
0.0847047953
0.0703027551
0.0573431447
0.0457497097
0.0354441698
0.0263485078
0.0183857661
0.0114800986
0.0055567706
0.0005421591
-0.0036362476
-0.0070498493
-0.0097689347
-0.0118626807
-0.0133991527
-0.0144453047
-0.0150669790
-0.0153289066
-0.0152947067
-0.0150268872
-0.0145868442
-0.0140286698
-0.0132955392
-0.0124137361
-0.0114444912
-0.0104335959
-0.0094114022
-0.0083928231
-0.0073773058
-0.0063477083
-0.0052698769
-0.0040941052
-0.0027552476
-0.0011727193
0.0007495038
0.0031228850
0.0060743271
0.0097461718
0.0142962004
0.0198976333
0.0267263825
0.0348972415
0.0447012884
0.0563792026
0.0700633825
0.0857779449
0.1034387253
0.1228532776
0.1437208746
0.1656325074
0.1880708858
0.2104104384
0.2319715480
0.2521324961
0.2699687269
0.2846803978
0.2956491533
0.3024383369
0.3047929908
0.3026398561
0.2960873729
0.2854256801
0.2711266154
0.2538403061
0.2341469532
0.2128581001
0.1908632925
0.1689226873
0.1476670527
0.1275977680
0.1090868238
0.0923768217
0.0775809747
0.0646831070
0.0535376537
0.0440185287
0.0355639721
0.0257482758
0.0124934526
-0.0057018512
-0.0297606092
-0.0600312690
-0.0962710479
-0.1314650504
-0.1525042726
-0.1475569699
-0.1063201826
-0.0200197361
0.1185897589
0.3165147823
0.5552888452
0.7952989787
0.9997253072
1.1348698651
1.1701566268
1.0807772877
0.8871463481
0.6395121839
0.3800009177
0.1415187090
-0.0522482457
-0.1867814837
-0.2597491441
-0.2815029365
-0.2642326913
-0.2207481619
-0.1644741149
-0.1094432495
-0.0657622914
-0.0333980906
-0.0107613256
0.0041639136
0.0138201259
0.0210698910
0.0279802410
0.0349974061
0.0424896021
0.0507418972
0.0599562119
0.0702513193
0.0816628447
0.0941623826
0.1077928952
0.1225902019
0.1385568420
0.1556663218
0.1738631151
0.1930626627
0.2131513862
0.2339889458
0.2554107559
0.2772238045
0.2992060469
0.3211064057
0.3427010719
0.3638183056
0.3840711202
0.4030941507
0.4205610097
0.4361842874
0.4497155513
0.4609453779
0.4697034880
0.4758586340
0.4793185458
0.4800299311
0.4779784746
0.4731888387
0.4657246632
0.4556870429
0.4430777710
0.4281152203
0.4111593858
0.3925535484
0.3726228514
0.3516723592
0.3299899419
0.3078467608
0.2854972685
0.2631792089
0.2411136170
0.2195048192
0.1985404331
0.1783913674
0.1592118224
0.1411392894
0.1242945509
0.1087842548
0.0946542341
0.0818524866
0.0703186748
0.0599909841
0.0508061229
0.0426993228
0.0356043383
0.0294534469
0.0241774492
0.0197056689
0.0159659544
0.0128856597
0.0103932592
0.0084161747
0.0068803511
0.0057102562
0.0048288809
0.0041637492
0.0037287306
0.0034940148
0.0034108531
0.0034397657
0.0035505417
0.0037222243
0.0039429941
0.0042102322
0.0045305882
0.0049199802
0.0054035956
0.0060158904
0.0068005896
0.0078106872
0.0091084458
0.0107653972
0.0128623419
0.0154219661
0.0185750430
0.0226436852
0.0279043411
0.0345851656
0.0428660205
0.0528784737
0.0647057999
0.0783829803
0.0938967027
0.1111853613
0.1301390571
0.1506015899
0.1725297277
0.1952196436
0.2176955505
0.2390851412
0.2586195881
0.2756335434
0.2895651389
0.2999559866
0.3064511778
0.3087992837
0.3068523555
0.3005659238
0.2899900427
0.2753852569
0.2576252276
0.2376119660
0.2161621645
0.1940071968
0.1717931183
0.1500806656
0.1293452568
0.1099769913
0.0922806502
0.0764756958
0.0626964967
0.0512793967
0.0415182514
0.0320121172
0.0213991794
0.0083567530
-0.0083987170
-0.0301116561
-0.0579873599
-0.0938396861
-0.1337895449
-0.1622534457
-0.1656812196
-0.1335556755
-0.0583931641
0.0642548604
0.2358034660
0.4547511161
0.7073412066
0.9409849135
1.1084272986
1.1787918816
1.1375806405
0.9867759407
0.7546271574
0.4913656548
0.2381200479
0.0237751325
-0.1350281147
-0.2333214845
-0.2706577682
-0.2627781600
-0.2271456327
-0.1779901696
-0.1263087650
-0.0798654238
-0.0431911618
-0.0175840056
-0.0010886948
0.0098927299
0.0174813435
0.0232939187
0.0285993724
0.0343187661
0.0410253055
0.0489443406
0.0579533660
0.0677662315
0.0786371363
0.0906554185
0.1038561812
0.1182486127
0.1338161546
0.1505165428
0.1682816069
0.1870172564
0.2066034809
0.2268996512
0.2478417087
0.2691765265
0.2905811985
0.3117462328
0.3323755517
0.3521864917
0.3709097164
0.3882888886
0.4040809607
0.4180562991
0.4299986846
0.4397053121
0.4469867905
0.4516671429
0.4535819709
0.4523287052
0.4478879180
0.4405469578
0.4305866849
0.4182814717
0.4038992022
0.3877012724
0.3699425902
0.3508715752
0.3307301593
0.3097537858
0.2881714101
0.2662054995
0.2440720333
0.2219805023
0.2001339095
0.1787283324
0.1579509939
0.1379818322
0.1189942965
0.1011553480
0.0846254598
0.0695516755
0.0559327415
0.0436791239
0.0327090249
0.0229421076
0.0142994961
0.0067037737
0.0000787924
-0.0056505042
-0.0105577531
-0.0147151308
-0.0181933524
-0.0210616726
-0.0233878847
-0.0252383215
-0.0266778546
-0.0277698947
-0.0285763918
-0.0291578349
-0.0295725472
-0.0298730783
-0.0301070338
-0.0302179788
-0.0302070049
-0.0301286286
-0.0300214979
-0.0299083919
-0.0297962213
-0.0296760280
-0.0295229854
-0.0292963980
-0.0289397019
-0.0283804645
-0.0275303843
-0.0262852916
-0.0245251476
-0.0221140451
-0.0189002083
-0.0147159925
-0.0093778846
-0.0026865028
0.0056168976
0.0162668354
0.0292588024
0.0443149543
0.0611314810
0.0793808745
0.0987135927
0.1187580661
0.1391206967
0.1593858590
0.1791158996
0.1978511370
0.2151098619
0.2303883372
0.2431607978
0.2528794507
0.2589745878
0.2608548170
0.2579067842
0.2498517534
0.2375962264
0.2219335244
0.2036051054
0.1833174952
0.1617422869
0.1395161412
0.1172407861
0.0954830173
0.0747749755
0.0556160594
0.0385531078
0.0238803922
0.0111171491
-0.0003604629
-0.0112830660
-0.0224880631
-0.0349196382
-0.0496287560
-0.0677731621
-0.0906173830
-0.1195327258
-0.1561331718
-0.1944702571
-0.2183527328
-0.2141500272
-0.1716220638
-0.0839192617
0.0524174644
0.2374567046
0.4682524671
0.7211536269
0.9406760704
1.0836650943
1.1238141859
1.0516646234
0.8749988132
0.6293394296
0.3643659943
0.1185970849
-0.0819566866
-0.2237926729
-0.3051623277
-0.3283926560
-0.3103713437
-0.2685852063
-0.2170021676
-0.1660712755
-0.1227227680
-0.0903680166
-0.0688995008
-0.0549002437
-0.0451381977
-0.0380828340
-0.0324753674
-0.0272855605
-0.0217117245
-0.0151807185
-0.0073479500
0.0019025243
0.0124570547
0.0239848231
0.0365298649
0.0502742126
0.0652261159
0.0813644467
0.0986386996
0.1169689914
0.1362460616
0.1563312720
0.1770566069
0.1982246730
0.2196086996
0.2409525382
0.2620535896
0.2826603850
0.3023905867
0.3208956288
0.3378615930
0.3530092089
0.3660938539
0.3769055534
0.3852689804
0.3910434558
0.3941232051
0.3944401654
0.3919629369
0.3866948029
0.3786126431
0.3676898424
0.3542394929
0.3385881966
0.3210514914
0.3019338507
0.2815286838
0.2601183354
0.2379740860
0.2153561215
0.1925133111
0.1696833342
0.1470928048
0.1249572726
0.1034812231
0.0828580773
0.0632701921
0.0448888597
0.0278756809
0.0123477491
-0.0017279625
-0.0144111763
-0.0257672418
-0.0358657060
-0.0447765071
-0.0525698856
-0.0593163845
-0.0650868491
-0.0699524271
-0.0739845686
-0.0772550259
-0.0798358538
-0.0817994095
-0.0832183523
-0.0841656442
-0.0847145494
-0.0849386344
-0.0849117681
-0.0847081219
-0.0844021693
-0.0840055956
-0.0834553084
-0.0828224153
-0.0821684265
-0.0815394441
-0.0809661625
-0.0804635258
-0.0800255050
-0.0796261398
-0.0792239308
-0.0787619708
-0.0781679443
-0.0773541284
-0.0762173919
-0.0746391956
-0.0724855927
-0.0696072281
-0.0658393390
-0.0610017547
-0.0548988703
-0.0473359399
-0.0381733013
-0.0271958298
-0.0142710438
0.0006258941
0.0174121777
0.0358973569
0.0557833377
0.0766643824
0.0980271091
0.1192504925
0.1396056959
0.1582534684
0.1744766897
0.1876221643
0.1970576404
0.2023404060
0.2032172899
0.1996246607
0.1916884274
0.1797240395
0.1642364865
0.1458000156
0.1251439855
0.1031262204
0.0805129247
0.0579782519
0.0361043040
0.0153811319
-0.0037932647
-0.0211129371
-0.0364178230
-0.0497177608
-0.0612114451
-0.0714278295
-0.0812281338
-0.0918057942
-0.1046853807
-0.1217225945
-0.1451053530
-0.1769957319
-0.2136746081
-0.2466483673
-0.2665395159
-0.2631454905
-0.2254386585
-0.1415642760
-0.0013379169
0.1908806711
0.4192080312
0.6587795233
0.8757492735
1.0272904799
1.0640659041
0.9765619811
0.7963442296
0.5578971299
0.2972077826
0.0517659087
-0.1430735867
-0.2777631973
-0.3537344478
-0.3767706299
-0.3574440896
-0.3111150141
-0.2561301117
-0.2035628128
-0.1592346444
-0.1261697308
-0.1045930586
-0.0919304768
-0.0832110737
-0.0760952349
-0.0697810933
-0.0634792709
-0.0566101316
-0.0488037803
-0.0399000639
-0.0299484594
-0.0189948296
-0.0069128994
0.0063484465
0.0208115486
0.0364699723
0.0532885082
0.0712031717
0.0901212445
0.1099226556
0.1304603177
0.1515584770
0.1730126051
0.1946618864
0.2163126806
0.2375823829
0.2581118485
0.2775700382
0.2956540190
0.3120889635
0.3266281499
0.3390529633
0.3491729582
0.3568259124
0.3618777222
0.3642223895
0.3637820222
0.3605068337
0.3542713574
0.3450799442
0.3332477616
0.3190855044
0.3028950471
0.2849694392
0.2655927412
0.2450399617
0.2235772715
0.2014620207
0.1789427387
0.1562591340
0.1336420944
0.1113136870
0.0894871578
0.0683669325
0.0481486156
0.0290189910
0.0111560218
-0.0052849912
-0.0202886314
-0.0339140141
-0.0462215747
-0.0572723899
-0.0671281784
-0.0758513004
-0.0835047581
-0.0901521953
-0.0958578974
-0.1006867917
-0.1047044721
-0.1079786062
-0.1105796902
-0.1125790467
-0.1140486398
-0.1150610754
-0.1156896010
-0.1160081061
-0.1160911217
-0.1160138206
-0.1157722551
-0.1153140149
-0.1147123070
-0.1140272915
-0.1133038164
-0.1125712781
-0.1118437955
-0.1111202487
-0.1103842791
-0.1096042889
-0.1087334417
-0.1077096622
-0.1064556363
-0.1048788107
-0.1028713938
-0.1003103312
-0.0970554945
-0.0929483960
-0.0878150055
-0.0814660539
-0.0737205100
-0.0644336597
-0.0533589390
-0.0403391082
-0.0253268683
-0.0083848619
0.0103143277
0.0304881761
0.0517442176
0.0735800456
0.0953833123
0.1164317290
0.1358939060
0.1530533619
0.1672201118
0.1777328400
0.1841213258
0.1861064429
0.1836001597
0.1767055393
0.1657167296
0.1510934629
0.1333852758
0.1134249426
0.0920229611
0.0699203230
0.0477885141
0.0262295139
0.0057757963
-0.0131096711
-0.0293385629
-0.0423747002
-0.0535379663
-0.0640277200
-0.0748939323
-0.0870375039
-0.1012099821
-0.1180134413
-0.1379004831
-0.1611742361
-0.1879883560
-0.2183470258
-0.2528427641
-0.2835143020
-0.2866275997
-0.2448356062
-0.1489424608
0.0020966539
0.2011752691
0.4330355937
0.6742685147
0.8913699825
1.0346513648
1.0696958765
0.9867530025
0.8003402138
0.5492429674
0.2866179053
0.0468853565
-0.1462974169
-0.2800673174
-0.3524254380
-0.3714867537
-0.3488514642
-0.3023063560
-0.2471887396
-0.1945710325
-0.1512607589
-0.1198005507
-0.0983306263
-0.0833678988
-0.0729881950
-0.0655617498
-0.0597048932
-0.0542802022
-0.0483965010
-0.0414088608
-0.0329186000
-0.0227732839
-0.0110667251
0.0018610167
0.0155273894
0.0302577175
0.0461842437
0.0632801515
0.0814901739
0.1007304175
0.1208882046
0.1418220720
0.1633617710
0.1853082677
0.2074337426
0.2294815908
0.2511664221
0.2721951324
0.2923738656
0.3113503064
0.3287722382
0.3443306341
0.3577600555
0.3688386525
0.3773881633
0.3832739148
0.3864048223
0.3867333894
0.3842557083
0.3790114597
0.3710839125
0.3605979928
0.3475967144
0.3323150295
0.3151018279
0.2962901306
0.2761970891
0.2551239861
0.2333562349
0.2111633798
0.1887990960
0.1665011894
0.1444915968
0.1229763871
0.1021472949
0.0821847664
0.0632542296
0.0455052432
0.0290909806
0.0140556406
0.0003490167
-0.0120806840
-0.0232865107
-0.0333227687
-0.0422450194
-0.0501100806
-0.0569760261
-0.0629021962
-0.0679493302
-0.0721795298
-0.0756561550
-0.0784438221
-0.0806084037
-0.0822170284
-0.0833380812
-0.0840412030
-0.0843972912
-0.0844784992
-0.0843487195
-0.0839361729
-0.0832701521
-0.0824194927
-0.0814389672
-0.0803692851
-0.0792370927
-0.0780549735
-0.0768214474
-0.0755209716
-0.0741239400
-0.0725866836
-0.0708514700
-0.0688465039
-0.0664859270
-0.0636698175
-0.0602841910
-0.0562009997
-0.0512781327
-0.0453594161
-0.0383270528
-0.0300065964
-0.0200728790
-0.0082975334
0.0054441082
0.0211730140
0.0388078852
0.0581691461
0.0789748042
0.1008391679
0.1232728459
0.1456827473
0.1674418575
0.1878752193
0.2060493046
0.2211788744
0.2326504501
0.2400223129
0.2430245039
0.2415588235
0.2356988073
0.2256897229
0.2119346956
0.1948949925
0.1754261806
0.1544021671
0.1326060872
0.1107303037
0.0893764079
0.0690552186
0.0501867828
0.0330993952
0.0180263944
0.0050269794
-0.0060479071
-0.0155972496
-0.0243978517
-0.0336047006
-0.0447509670
-0.0597480047
-0.0808853514
-0.1103143703
-0.1449953352
-0.1780228242
-0.2008228488
-0.2031612017
-0.1731434572
-0.0978982231
0.0301323483
0.2120647682
0.4372630221
0.6824443436
0.9116792147
1.0763401544
1.1277975682
1.0646398010
0.9047946140
0.6750726054
0.4111653180
0.1576444269
-0.0464253897
-0.1937793308
-0.2823985195
-0.3160785556
-0.3044645955
-0.2630345091
-0.2090965896
-0.1543356357
-0.1066903465
-0.0705231475
-0.0466200957
-0.0321908075
-0.0221110932
-0.0145570632
-0.0082628282
-0.0021929542
0.0043858588
0.0119047764
0.0204928297
0.0300133552
0.0405489805
0.0522162700
0.0650670361
0.0791276198
0.0943990588
0.1108570878
0.1284521383
0.1471093390
0.1667285152
0.1871841895
0.2083620734
0.2301449129
0.2522293214
0.2743096974
0.2960907644
0.3172875717
0.3376254937
0.3568402305
0.3746778074
0.3908945753
0.4052572105
0.4175427146
0.4275384147
0.4350419634
0.4398613387
0.4416554641
0.4403446571
0.4361411309
0.4292583456
0.4199115528
0.4083177967
0.3946959139
0.3792665335
0.3622520772
0.3438767593
0.3243665863
0.3039493576
0.2828546647
0.2613138920
0.2395602160
0.2178284916
0.1963550497
0.1753779591
0.1551370812
0.1358740700
0.1178323718
0.1011924258
0.0858932700
0.0719005720
0.0591812599
0.0476975996
0.0374074278
0.0282655480
0.0202227951
0.0132253442
0.0072147079
0.0021277366
-0.0021033822
-0.0055511231
-0.0082926232
-0.0104096823
-0.0119887623
-0.0131209877
-0.0139021456
-0.0144093760
-0.0146303669
-0.0146111564
-0.0143999842
-0.0140377068
-0.0135577978
-0.0129863474
-0.0123420630
-0.0116362687
-0.0108729058
-0.0100485321
-0.0091523226
-0.0081661629
-0.0070652986
-0.0058179467
-0.0043849431
-0.0027197407
-0.0007754067
0.0014330071
0.0041032109
0.0074803306
0.0117857920
0.0172173214
0.0239489453
0.0321309905
0.0418900840
0.0533292731
0.0665284461
0.0815439441
0.0984084087
0.1171427417
0.1378575642
0.1599242204
0.1825221422
0.2048864335
0.2263078697
0.2461328982
0.2637636069
0.2786574731
0.2903274957
0.2983423439
0.3023263587
0.3019595529
0.2969772163
0.2873831079
0.2738791344
0.2572590178
0.2382732500
0.2176290937
0.1959905818
0.1739785174
0.1521704742
0.1311007961
0.1112605975
0.0930977632
0.0773598640
0.0651326858
0.0548928965
0.0450722307
0.0343544871
0.0216755274
0.0062232771
-0.0125621258
-0.0349869303
-0.0611044024
-0.0907157323
-0.1233700470
-0.1560011412
-0.1724306909
-0.1560381855
-0.0955798420
0.0148086019
0.1756118882
0.3819352382
0.6236333350
0.8694864467
1.0639633879
1.1673631826
1.1595770875
1.0400888673
0.8289429875
0.5708416995
0.3107256912
0.0813513074
-0.0968062896
-0.2153269848
-0.2710973674
-0.2772714299
-0.2508245806
-0.2059803419
-0.1542088444
-0.1042268004
-0.0619975034
-0.0307308282
-0.0103149099
0.0032039322
0.0124335158
0.0193708350
0.0255584816
0.0320846452
0.0395831131
0.0482332700
0.0577644757
0.0681223372
0.0795609599
0.0921379527
0.1058876482
0.1208211026
0.1369260959
0.1541671315
0.1724854367
0.1917989622
0.2120025183
0.2330574860
0.2548044643
0.2769516601
0.2992141313
0.3213137866
0.3429793857
0.3639465391
0.3839577086
0.4027622064
0.4201161962
0.4357826922
0.4495315598
0.4611395151
0.4703901499
0.4770742297
0.4809709474
0.4817123827
0.4793806626
0.4741896557
0.4663546380
0.4560922936
0.4436207145
0.4291594003
0.4129292585
0.3951525895
0.3760528598
0.3558547459
0.3347843264
0.3130690878
0.2909379243
0.2686211380
0.2463504387
0.2243589442
0.2028811798
0.1821530790
0.1624119828
0.1438966401
0.1267998145
0.1110663609
0.0966569586
0.0835389474
0.0716753641
0.0610249430
0.0515421158
0.0431770113
0.0358754558
0.0295789729
0.0242247834
0.0197458056
0.0160705626
0.0131214806
0.0108150567
0.0090634265
0.0077744228
0.0068515758
0.0062121615
0.0058600667
0.0057494741
0.0058305126
0.0060602751
0.0064028184
0.0068291631
0.0073172939
0.0078521604
0.0084257046
0.0090368633
0.0096915389
0.0104025976
0.0111898698
0.0120801493
0.0131071943
0.0143117267
0.0157154524
0.0173452299
0.0194117327
0.0221288284
0.0256978541
0.0303042961
0.0361176376
0.0432913581
0.0519629338
0.0622538375
0.0742695386
0.0880995029
0.1038171929
0.1215371712
0.1412351674
0.1622322626
0.1838246090
0.2053395485
0.2261356121
0.2456025207
0.2631611844
0.2782637029
0.2903933652
0.2990646499
0.3038232252
0.3042459484
0.2998738150
0.2905473725
0.2771587257
0.2606190105
0.2417630265
0.2213494535
0.2000608508
0.1785036577
0.1572081934
0.1366286568
0.1171431268
0.0990535622
0.0825858015
0.0678895632
0.0550384456
0.0440299248
0.0361055117
0.0302455399
0.0218788665
0.0079642037
-0.0129450559
-0.0407008389
-0.0735603914
-0.1081862787
-0.1396463857
-0.1619059317
-0.1646459580
-0.1289537661
-0.0426224477
0.0982212725
0.2891168404
0.5172698721
0.7615769572
0.9879037033
1.1437320610
1.1932942955
1.1252686717
0.9527794537
0.7117411328
0.4471197848
0.1985602886
-0.0066070970
-0.1536975102
-0.2404339255
-0.2694841921
-0.2558011872
-0.2165345856
-0.1655912171
-0.1136350666
-0.0680872740
-0.0331261341
-0.0095492930
0.0059357860
0.0161248327
0.0230596616
0.0284113033
0.0334800040
0.0391952259
0.0461156472
0.0544291618
0.0639528797
0.0742315346
0.0855117131
0.0979582601
0.1116030341
0.1264510595
0.1424806518
0.1596436223
0.1778650020
0.1970429878
0.2170489423
0.2377273940
0.2589595857
0.2805932060
0.3022840834
0.3237004008
0.3445280792
0.3644710518
0.3832514129
0.4006090266
0.4163014898
0.4301041328
0.4418100190
0.4512299451
0.4581924409
0.4625437695
0.4641479269
0.4627965657
0.4581517489
0.4504797246
0.4401011288
0.4273258749
0.4124531531
0.3957714310
0.3775584531
0.3580812411
0.3375960937
0.3163485870
0.2945735738
0.2724951844
0.2503268260
0.2282711789
0.2065198895
0.1852533494
0.1646411752
0.1448422608
0.1260047772
0.1082661723
0.0917531714
0.0765817767
0.0628488661
0.0505340582
0.0395418362
0.0297784980
0.0211536516
0.0135802150
0.0069743402
0.0012551624
-0.0036549608
-0.0078303617
-0.0113420626
-0.0142577757
-0.0166419031
-0.0185555368
-0.0200564590
-0.0211991416
-0.0220347456
-0.0226110251
-0.0229722396
-0.0231593178
-0.0232098783
-0.0231582298
-0.0230353708
-0.0228685798
-0.0226318953
-0.0223210739
-0.0219570771
-0.0215441126
-0.0210696337
-0.0205043397
-0.0198021756
-0.0189003325
-0.0177192472
-0.0161626022
-0.0141173262
-0.0114535935
-0.0080248243
-0.0036676846
0.0017979135
0.0085688123
0.0168586081
0.0269117891
0.0395110884
0.0546378939
0.0717956041
0.0904920966
0.1102397275
0.1305553318
0.1509602232
0.1709801944
0.1901455167
0.2079909403
0.2240556939
0.2378834855
0.2490225015
0.2570254072
0.2614493871
0.2618563920
0.2578129754
0.2489093287
0.2355659876
0.2187660091
0.1993425679
0.1780698456
0.1556630312
0.1327783206
0.1100129169
0.0879049847
0.0669335867
0.0475187770
0.0300216170
0.0156304974
0.0041037779
-0.0062596973
-0.0169150216
-0.0290711533
-0.0436909154
-0.0614909958
-0.0829419474
-0.1082681878
-0.1374479996
-0.1702135301
-0.2051071950
-0.2289150317
-0.2242936031
-0.1788408132
-0.0852173356
0.0588533873
0.2505851433
0.4821680769
0.7317147289
0.9471339256
1.0846434092
1.1171187387
1.0340958597
0.8458944578
0.5975067019
0.3355281018
0.0955437791
-0.0978793280
-0.2306974279
-0.3028941342
-0.3244732168
-0.3068958813
-0.2628485483
-0.2062428528
-0.1521303251
-0.1098009768
-0.0787084982
-0.0573045307
-0.0435602097
-0.0349661640
-0.0285566588
-0.0224207528
-0.0161667367
-0.0094427735
-0.0019746222
0.0064357668
0.0159130642
0.0265051305
0.0381918856
0.0510110385
0.0650030233
0.0801713112
0.0964905206
0.1139064169
0.1323359125
0.1516670670
0.1717590871
0.1924423265
0.2135182860
0.2347596135
0.2559101041
0.2766846998
0.2967716838
0.3159746796
0.3339974381
0.3504794945
0.3651061265
0.3776083540
0.3877629391
0.3953923862
0.4003640386
0.4025879318
0.4020192005
0.3986587222
0.3925531163
0.3837947446
0.3725217113
0.3589121318
0.3430538119
0.3252274594
0.3057915464
0.2850851624
0.2634280137
0.2411204242
0.2184433311
0.1956582046
0.1730070440
0.1507124618
0.1289776876
0.1079865680
0.0879035672
0.0688737661
0.0510228630
0.0344717842
0.0193386892
0.0055726189
-0.0068961610
-0.0181364311
-0.0282164917
-0.0372041633
-0.0451667859
-0.0521712196
-0.0582838444
-0.0635705602
-0.0680967866
-0.0719274632
-0.0751270496
-0.0777595252
-0.0798883891
-0.0815766605
-0.0828868785
-0.0838811019
-0.0846209096
-0.0851674002
-0.0855811922
-0.0858974379
-0.0860346430
-0.0860345903
-0.0859480054
-0.0858096099
-0.0856383336
-0.0854380131
-0.0851967250
-0.0848865419
-0.0844635327
-0.0838677618
-0.0830232899
-0.0818381736
-0.0802044654
-0.0779982141
-0.0750794639
-0.0712922556
-0.0664646256
-0.0604086065
-0.0529202236
-0.0437793048
-0.0328130610
-0.0199247189
-0.0050746424
0.0116738809
0.0301546396
0.0500984984
0.0711333982
0.0927843559
0.1144734648
0.1355198367
0.1551393798
0.1724450567
0.1866979758
0.1973642807
0.2039487121
0.2061443447
0.2038325875
0.1970831833
0.1861542091
0.1714920758
0.1537315286
0.1336377555
0.1118920481
0.0893408329
0.0667442738
0.0447432036
0.0238591238
0.0044942048
-0.0130687141
-0.0286661249
-0.0422104162
-0.0512181806
-0.0575762055
-0.0651279177
-0.0766137390
-0.0936706027
-0.1168323444
-0.1455299026
-0.1780913189
-0.2117417385
-0.2426034094
-0.2657406034
-0.2696813187
-0.2355490342
-0.1511816452
-0.0124429239
0.1767774810
0.4045640441
0.6508938583
0.8747037415
1.0228970906
1.0632885778
0.9867785657
0.8070801814
0.5606103732
0.2967665871
0.0542983465
-0.1412260548
-0.2769314210
-0.3462447705
-0.3628435404
-0.3438172544
-0.3036444659
-0.2541927585
-0.2047187455
-0.1618680701
-0.1296754054
-0.1090786920
-0.0958385276
-0.0870622910
-0.0807317093
-0.0752644185
-0.0695139633
-0.0627697969
-0.0547572816
-0.0456376882
-0.0357374129
-0.0247445819
-0.0125662621
0.0008397754
0.0154880100
0.0313651721
0.0484302423
0.0666144523
0.0858211320
0.1059247945
0.1267717465
0.1482104291
0.1701564808
0.1922670518
0.2141791812
0.2355512496
0.2560629793
0.2754154343
0.2933310202
0.3095534841
0.3238479151
0.3360007436
0.3458197417
0.3531341123
0.3577947620
0.3596740318
0.3586656043
0.3545213457
0.3472526549
0.3371787954
0.3246100558
0.3098476605
0.2931837702
0.2749017533
0.2552780840
0.2345812115
0.2130705275
0.1909963597
0.1685999719
0.1461135641
0.1237602720
0.1017541676
0.0803002590
0.0595944901
0.0398237411
0.0211658280
0.0037895031
-0.0121468592
-0.0265846486
-0.0396002344
-0.0512776117
-0.0616985608
-0.0709426463
-0.0790872175
-0.0862074087
-0.0923761385
-0.0976641104
-0.1021398125
-0.1058698101
-0.1089211204
-0.1113599712
-0.1132503884
-0.1146541828
-0.1156309497
-0.1162380690
-0.1165307056
-0.1165618086
-0.1163821122
-0.1160401351
-0.1155821807
-0.1150523369
-0.1144545106
-0.1137535157
-0.1129785338
-0.1121447210
-0.1112509478
-0.1102797908
-0.1091975324
-0.1079541609
-0.1064833702
-0.1047025605
-0.1025128374
-0.0997990127
-0.0964294195
-0.0922541647
-0.0871059099
-0.0808010074
-0.0731395149
-0.0639051963
-0.0528655214
-0.0397532931
-0.0244782003
-0.0072531885
0.0116408816
0.0318635611
0.0530148129
0.0746350121
0.0962049455
0.1171458120
0.1368192224
0.1545271994
0.1695121775
0.1809570035
0.1880112954
0.1903564057
0.1881526674
0.1816421094
0.1711565948
0.1571177775
0.1400366245
0.1205135910
0.0992389601
0.0769928490
0.0546452087
0.0330321587
0.0124396322
-0.0065163381
-0.0233877764
-0.0379925809
-0.0504145230
-0.0610032477
-0.0703742736
-0.0794089929
-0.0892547010
-0.1010929120
