ECG
1.1298057269
1.0533438235
0.8579741266
0.5899850093
0.3051687841
0.0515252625
-0.1454162201
-0.2732642436
-0.3320567451
-0.3338311423
-0.2956139088
-0.2383377915
-0.1789649012
-0.1284112429
-0.0915467159
-0.0672372267
-0.0512616302
-0.0405568058
-0.0326183879
-0.0255038051
-0.0178322807
-0.0087848323
0.0018957280
0.0139051844
0.0270665129
0.0416749888
0.0577582494
0.0752977827
0.0942339562
0.1144679905
0.1358619596
0.1582387908
0.1813822647
0.2050370151
0.2289759756
0.2529129982
0.2764024198
0.2990261086
0.3203961675
0.3401549340
0.3579749804
0.3735591134
0.3866403746
0.3969820401
0.4043776206
0.4086508616
0.4096420184
0.4069567428
0.4007227408
0.3912874275
0.3789909188
0.3641668194
0.3471452733
0.3282502799
0.3077985401
0.2860994559
0.2634551307
0.2401603696
0.2165026789
0.1927622663
0.1692120410
0.1461176136
0.1237372959
0.1023221014
0.0821157450
0.0633546427
0.0462431107
0.0307858637
0.0169016362
0.0045096537
-0.0064704650
-0.0161187075
-0.0245146685
-0.0317375492
-0.0378661574
-0.0429789080
-0.0471542279
-0.0504724865
-0.0530144932
-0.0548606654
-0.0560910269
-0.0567852085
-0.0570224475
-0.0568815879
-0.0564410806
-0.0557780549
-0.0549028417
-0.0537461431
-0.0522254029
-0.0502411194
-0.0476768448
-0.0443991857
-0.0402578026
-0.0350854105
-0.0286977783
-0.0208937291
-0.0114551403
-0.0001469434
0.0132828759
0.0291962223
0.0478059712
0.0686055188
0.0910249744
0.1144701467
0.1383220247
0.1619367719
0.1846457265
0.2057554011
0.2245474830
0.2402788340
0.2521814906
0.2594626636
0.2613026323
0.2571294747
0.2476284123
0.2337485794
0.2163894690
0.1964009336
0.1745831846
0.1516867924
0.1284126867
0.1054121564
0.0832868492
0.0625887721
0.0438202913
0.0274324818
0.0134188242
0.0006955630
-0.0122281879
-0.0271355637
-0.0461019519
-0.0714949925
-0.1057212846
-0.1455114629
-0.1813161306
-0.2016738400
-0.1933527116
-0.1413504340
-0.0318333275
0.1407379658
0.3698143455
0.6320458358
0.8872253432
1.0783009435
1.1477895636
1.0829495391
0.8988317650
0.6325501311
0.3432518806
0.0884288530
-0.1092290995
-0.2379493284
-0.2974084966
-0.2987273991
-0.2600391719
-0.2016030487
-0.1409490528
-0.0893428579
-0.0517857880
-0.0270229936
-0.0103835628
0.0011712307
0.0101673349
0.0185207472
0.0275375153
0.0379137364
0.0497355576
0.0626508057
0.0768747745
0.0925049162
0.1095523663
0.1279894678
0.1477497712
0.1687280352
0.1907802257
0.2137235166
0.2373381138
0.2614731956
0.2857977260
0.3098851495
0.3333318984
0.3557573927
0.3768040400
0.3961372357
0.4134453630
0.4284397924
0.4408548826
0.4504479797
0.4569994176
0.4603117962
0.4599431729
0.4558615123
0.4484088253
0.4379211784
0.4247286930
0.4091555457
0.3915199684
0.3721342483
0.3513047275
0.3293318036
0.3065099293
0.2831276207
0.2594676692
0.2358072017
0.2124174211
0.1895635853
0.1675050075
0.1464950561
0.1267811548
0.1086047822
0.0920962913
0.0771788154
0.0637856405
0.0518475559
0.0412928144
0.0320471328
0.0240336918
0.0171731359
0.0113835735
0.0065805769
0.0026771823
-0.0004161105
-0.0027913374
-0.0045430708
-0.0057684191
-0.0065670266
-0.0070406666
-0.0072460064
-0.0071816531
-0.0068319507
-0.0061608237
-0.0051117767
-0.0036078944
-0.0015518422
0.0011741346
0.0047082103
0.0092089790
0.0148554543
0.0218470700
0.0304036791
0.0407655547
0.0531933894
0.0679627281
0.0851273270
0.1045140160
0.1258511819
0.1487384184
0.1726465261
0.1969175125
0.2207645919
0.2432721856
0.2633959044
0.2801621651
0.2928401299
0.3007954495
0.3036433116
0.3012488143
0.2937269655
0.2814426832
0.2650107954
0.2452960403
0.2232549517
0.1996935073
0.1757697060
0.1524440699
0.1304416530
0.1102520417
0.0921293546
0.0760922423
0.0619238876
0.0491720054
0.0372789667
0.0238717359
0.0052196282
-0.0206072768
-0.0536218058
-0.0919447497
-0.1295670448
-0.1515934182
-0.1429298424
-0.0901334311
0.0185875613
0.1941225704
0.4280845677
0.6875138727
0.9327995303
1.1181949884
1.1918180974
1.1129356130
0.9158326325
0.6534292460
0.3738588471
0.1204653672
-0.0703673015
-0.1890318219
-0.2411978141
-0.2378126627
-0.1953701540
-0.1356837442
-0.0771857726
-0.0281860103
0.0074609120
0.0300329220
0.0439219938
0.0541744406
0.0626385885
0.0707831534
0.0796189635
0.0896989592
0.1011181931
0.1137731007
0.1278204407
0.1433002201
0.1602121425
0.1785166700
0.1981350230
0.2189491801
0.2408018786
0.2635037818
0.2869540712
0.3108064899
0.3346325460
0.3580249295
0.3805975126
0.4019853497
0.4218446770
0.4398528672
0.4557073082
0.4691253379
0.4798454175
0.4876271901
0.4922514811
0.4934494437
0.4908243317
0.4846405514
0.4752464964
0.4629841179
0.4481889242
0.4311899817
0.4123099137
0.3918649014
0.3701646835
0.3475125559
0.3242053725
0.3005335441
0.2767810396
0.2532253850
0.2301376640
0.2077825177
0.1864181448
0.1662963015
0.1476623516
0.1306869890
0.1153034413
0.1014531142
0.0890756993
0.0781062624
0.0684752432
0.0601084556
0.0529270878
0.0468477018
0.0417822340
0.0376379945
0.0343176681
0.0317193131
0.0297363623
0.0282576226
0.0271779699
0.0265012769
0.0261802700
0.0261677113
0.0264460632
0.0270274879
0.0279538481
0.0292967064
0.0311573257
0.0336666274
0.0369836074
0.0412948447
0.0468164760
0.0537943384
0.0625039692
0.0731724693
0.0859712570
0.1010800834
0.1185291311
0.1381969839
0.1598106266
0.1829454451
0.2070252266
0.2313221594
0.2549568328
0.2768982374
0.2960585300
0.3116310102
0.3228404063
0.3291345388
0.3302044705
0.3259845062
0.3166521935
0.3026283218
0.2845769479
0.2634066294
0.2402711993
0.2160209775
0.1915129642
0.1679047625
0.1460128420
0.1263123116
0.1089369198
0.0936790542
0.0799897418
0.0669786490
0.0534140815
0.0376695776
0.0157448692
-0.0147817846
-0.0523664233
-0.0914951497
-0.1229255875
-0.1309235325
-0.0984169524
-0.0127821135
0.1340707588
0.3483491052
0.6114237551
0.8685298687
1.0708804963
1.1777091913
1.1562704975
0.9919715601
0.7363694968
0.4530847660
0.1900867173
-0.0203390849
-0.1615908614
-0.2285548326
-0.2351475895
-0.2035137966
-0.1519806212
-0.0950507665
-0.0434024720
-0.0038895130
0.0215515878
0.0376994052
0.0484240382
0.0566519152
0.0644840003
0.0731957929
0.0832373277
0.0943412367
0.1066912536
0.1204528447
0.1356658920
0.1523320277
0.1704149829
0.1898405978
0.2104968215
0.2322337121
0.2549118943
0.2783863302
0.3022596496
0.3261313384
0.3496151897
0.3723393030
0.3939460848
0.4140922483
0.4324488134
0.4487011070
0.4625487625
0.4737057202
0.4819002272
0.4868747564
0.4881610284
0.4856754295
0.4797184620
0.4705902459
0.4585914693
0.4440243504
0.4271909466
0.4083929253
0.3879315647
0.3661077528
0.3432219884
0.3195743801
0.2954646473
0.2711921193
0.2470557360
0.2233540474
0.2003852139
0.1784470061
0.1578368052
0.1388398210
0.1214834752
0.1057018028
0.0914547645
0.0786950425
0.0673680409
0.0574118854
0.0487574236
0.0413282246
0.0350405741
0.0298023186
0.0255116894
0.0220596804
0.0193300379
0.0171992300
0.0155374375
0.0143188059
0.0135059425
0.0130201045
0.0128125337
0.0128644571
0.0131870866
0.0138216191
0.0148392363
0.0163411051
0.0184583772
0.0213521894
0.0252136634
0.0302639059
0.0367540085
0.0449355123
0.0549685640
0.0671492496
0.0816548873
0.0985045367
0.1175603974
0.1385299249
0.1609628550
0.1842506611
0.2076265544
0.2301654837
0.2509889404
0.2691216762
0.2835158251
0.2933851903
0.2982056116
0.2977149648
0.2919131623
0.2810621525
0.2656859203
0.2465704868
0.2245258209
0.2005022814
0.1757066568
0.1511396901
0.1275931489
0.1056498255
0.0856835368
0.0678591242
0.0521324524
0.0382489930
0.0259494957
0.0126729225
-0.0049875006
-0.0290669107
-0.0602185465
-0.0977249409
-0.1376675408
-0.1654689193
-0.1653112371
-0.1232599594
-0.0272638555
0.1334420467
0.3619226415
0.6219259378
0.8694699206
1.0600159676
1.1484688500
1.0917099605
0.9021264379
0.6409486270
0.3612917687
0.1057055638
-0.0938258271
-0.2196937314
-0.2774958077
-0.2799665298
-0.2426104215
-0.1837036436
-0.1238447064
-0.0751718598
-0.0390994348
-0.0149428396
-0.0002330580
0.0092804982
0.0175177344
0.0254682184
0.0338771905
0.0432780210
0.0539922105
0.0661293902
0.0796139856
0.0944807061
0.1107618210
0.1284300440
0.1474159900
0.1676081752
0.1888530167
0.2109548327
0.2336758425
0.2567359245
0.2798120873
0.3026079171
0.3248400466
0.3460130612
0.3656719148
0.3834136209
0.3988872529
0.4117939438
0.4218868863
0.4289713328
0.4329045958
0.4335960470
0.4310071181
0.4251513007
0.4160463003
0.4036975299
0.3884847593
0.3708140344
0.3510779400
0.3296556000
0.3069126772
0.2832013733
0.2588604291
0.2342151242
0.2095769433
0.1852425674
0.1614948790
0.1386032998
0.1168237901
0.0963988495
0.0775239032
0.0602230674
0.0444656300
0.0302134371
0.0174208948
0.0060349690
-0.0040048144
-0.0127663697
-0.0203250514
-0.0267636541
-0.0321724123
-0.0366490010
-0.0402985350
-0.0432335694
-0.0455740993
-0.0474475601
-0.0489732294
-0.0501460883
-0.0510075365
-0.0515954751
-0.0519184089
-0.0519575541
-0.0516673557
-0.0509753674
-0.0497822515
-0.0479617788
-0.0453608288
-0.0417993893
-0.0370705569
-0.0309405366
-0.0231486420
-0.0134072953
-0.0014210356
0.0129317018
0.0296045338
0.0484271974
0.0691034353
0.0912109959
0.1142016331
0.1374011065
0.1600091815
0.1810996290
0.1996202256
0.2144135425
0.2247295868
0.2301316792
0.2303495816
0.2253467861
0.2153205147
0.2007017200
0.1821550845
0.1605790211
0.1370964000
0.1125779913
0.0880097463
0.0643633349
0.0423377325
0.0223592205
0.0045813862
-0.0111148774
-0.0251213713
-0.0380937833
-0.0503978646
-0.0663879014
-0.0899386939
-0.1218367675
-0.1597803731
-0.1983794870
-0.2299487838
-0.2380193076
-0.2021382765
-0.1096370872
0.0441150754
0.2557109271
0.5135163498
0.7777212268
0.9834008837
1.0827326054
1.0481427316
0.8786802810
0.6239076854
0.3406874225
0.0757958903
-0.1343189552
-0.2731640355
-0.3445996294
-0.3579783387
-0.3271165298
-0.2702943328
-0.2096929893
-0.1588150585
-0.1199926253
-0.0933442747
-0.0770040627
-0.0671211854
-0.0589685006
-0.0512328725
-0.0432006078
-0.0343082813
-0.0241791231
-0.0126230182
0.0003634935
0.0147077602
0.0304778267
0.0476589086
0.0661946203
0.0859885963
0.1069044916
0.1287659812
0.1513567606
0.1744205454
0.1976610714
0.2207420948
0.2432873919
0.2649877045
0.2855032676
0.3043715151
0.3211890670
0.3356124285
0.3473573956
0.3561951936
0.3619543001
0.3645224943
0.3638474207
0.3599366085
0.3528574725
0.3427334990
0.3296140443
0.3137979997
0.2956988260
0.2757139311
0.2542246695
0.2315963426
0.2081781990
0.1843034338
0.1602891891
0.1364365539
0.1130305639
0.0903402020
0.0686183976
0.0481020272
0.0290092716
0.0114116218
-0.0047142168
-0.0193994256
-0.0326779032
-0.0445889283
-0.0551798429
-0.0645060727
-0.0726311270
-0.0796265988
-0.0855721652
-0.0905555866
-0.0946727075
-0.0980274558
-0.1007318435
-0.1029059660
-0.1046780026
-0.1061318221
-0.1072578625
-0.1080870639
-0.1086286635
-0.1088682593
-0.1087678110
-0.1082656389
-0.1072764247
-0.1056912115
-0.1033774032
-0.1001787651
-0.0959157635
-0.0903885164
-0.0833749220
-0.0746286605
-0.0638797297
-0.0508350828
-0.0353097574
-0.0174382432
0.0025070563
0.0241471456
0.0469964365
0.0704627487
0.0938473093
0.1163447533
0.1370431230
0.1549238687
0.1688690308
0.1781147317
0.1823327297
0.1813494646
0.1752110217
0.1641831322
0.1487511727
0.1296201659
0.1077147797
0.0841635513
0.0598609686
0.0357453955
0.0126735545
-0.0087383491
-0.0281146275
-0.0453201099
-0.0604601428
-0.0738805899
-0.0850826081
-0.0973956768
-0.1154564807
-0.1413945358
-0.1748314193
-0.2128807701
-0.2501482886
-0.2804146460
-0.2846489427
-0.2404238329
-0.1355184715
0.0320153661
0.2538532838
0.5113982645
0.7724142885
0.9720141814
1.0550660700
1.0001997873
0.8199609328
0.5576267687
0.2719471616
0.0122349817
-0.1902763983
-0.3224577425
-0.3819476639
-0.3832892776
-0.3485754886
-0.2958574341
-0.2391444842
-0.1884042410
-0.1495625393
-0.1240524969
-0.1073462953
-0.0960267376
-0.0875989029
-0.0800983092
-0.0720909134
-0.0626731118
-0.0514717394
-0.0386440704
-0.0247599572
-0.0095958203
0.0069932843
0.0249870822
0.0443242086
0.0649022327
0.0865776574
0.1091659195
0.1324413898
0.1561373727
0.1799461066
0.2035551954
0.2267195972
0.2489670118
0.2698398462
0.2889294253
0.3058759926
0.3203687097
0.3321456566
0.3409938315
0.3467491510
0.3492964498
0.3485694810
0.3445509161
0.3372470708
0.3266357216
0.3130364024
0.2968205129
0.2783535458
0.2579943671
0.2360946194
0.2129985691
0.1890431070
0.1645577483
0.1398646320
0.1152785216
0.0911068047
0.0676494930
0.0451992224
0.0240380440
0.0043309160
-0.0138945552
-0.0306291427
-0.0458756865
-0.0596490939
-0.0719763394
-0.0828964647
-0.0924605787
-0.1007318574
-0.1077855443
-0.1137089497
-0.1186014931
-0.1225755426
-0.1257563764
-0.1282813732
-0.1302941854
-0.1317923649
-0.1328241380
-0.1334750949
-0.1338033070
-0.1338393268
-0.1335861872
-0.1330194026
-0.1320869679
-0.1307093591
-0.1287795331
-0.1261629279
-0.1226974620
-0.1181935353
-0.1124340284
-0.1051743028
-0.0961422009
-0.0850885894
-0.0718542260
-0.0563036528
-0.0384392479
-0.0184050496
0.0035128950
0.0268863309
0.0511443422
0.0755740185
0.0993208028
0.1213884926
0.1406459446
0.1562306381
0.1674615552
0.1737788692
0.1748823130
0.1707311793
0.1615443203
0.1478001481
0.1302366344
0.1097810620
0.0873210446
0.0639142101
0.0404917507
0.0178281044
-0.0034590453
-0.0229087693
-0.0402168931
-0.0535544952
-0.0629197310
-0.0730155314
-0.0872268860
-0.1075140175
-0.1344124250
-0.1670328840
-0.2030614467
-0.2387594419
-0.2690053731
-0.2826432465
-0.2566564742
-0.1746948801
-0.0303189307
0.1730002656
0.4218809582
0.6908483158
0.9189752298
1.0464261475
1.0424938683
0.9058487295
0.6659583558
0.3827309501
0.1100159947
-0.1155126670
-0.2741818422
-0.3561215332
-0.3758334515
-0.3542575894
-0.3089984326
-0.2543255025
-0.2011739407
-0.1571445150
-0.1265034704
-0.1074517645
-0.0948882090
-0.0859718360
-0.0784731237
-0.0707739968
-0.0618678261
-0.0513594289
-0.0394650684
-0.0265163817
-0.0121696392
0.0036184908
0.0208443041
0.0394635168
0.0593912652
0.0805021061
0.1026300166
0.1255683942
0.1490700146
0.1728652046
0.1967640147
0.2203262917
0.2430888644
0.2646274874
0.2845568417
0.3025305346
0.3182410994
0.3314199959
0.3418376098
0.3493032533
0.3536651646
0.3548105084
0.3526651085
0.3470624926
0.3381280912
0.3262111307
0.3116562103
0.2948033022
0.2759877514
0.2555402758
0.2337869664
0.2110492868
0.1876440737
0.1638835598
0.1400769131
0.1165311558
0.0935480746
0.0714241087
0.0504510470
0.0309013744
0.0128706576
-0.0036494583
-0.0186755829
-0.0322331886
-0.0443566098
-0.0550890434
-0.0644825488
-0.0725980474
-0.0795053233
-0.0852830227
-0.0900186542
-0.0938085889
-0.0967580600
-0.0989811634
-0.1006008569
-0.1017489611
-0.1025380907
-0.1029520401
-0.1030369214
-0.1028284925
-0.1023364594
-0.1015450825
-0.1004132471
-0.0988744638
-0.0968368682
-0.0941832213
-0.0907709089
-0.0864319421
-0.0809729570
-0.0741752151
-0.0657946028
-0.0555616316
-0.0431816863
-0.0284438026
-0.0113568321
0.0079505984
0.0292254395
0.0520902200
0.0760430465
0.1004576034
0.1245831529
0.1475445352
0.1683421682
0.1858544370
0.1992166831
0.2079064030
0.2115305948
0.2099397109
0.2032271037
0.1917289852
0.1760244272
0.1569353609
0.1354992582
0.1125818005
0.0892095980
0.0663208625
0.0446429553
0.0246923863
0.0067748150
-0.0090149501
-0.0227929514
-0.0342644254
-0.0436336108
-0.0562839819
-0.0758432621
-0.1035147917
-0.1380775278
-0.1758860443
-0.2108705271
-0.2374847320
-0.2369009341
-0.1837292118
-0.0652165406
0.1185623994
0.3547052236
0.6174818429
0.8682662357
1.0514060739
1.1157354371
1.0423482764
0.8457270633
0.5737393903
0.2906503751
0.0387988061
-0.1540621993
-0.2753618136
-0.3277114993
-0.3233663293
-0.2817126297
-0.2238756986
-0.1653636943
-0.1160654855
-0.0802506516
-0.0558890401
-0.0389949716
-0.0272208032
-0.0185474156
-0.0112824525
-0.0040600971
0.0041589596
0.0140875179
0.0261118703
0.0402918008
0.0563605854
0.0737249917
0.0919036009
0.1113868625
0.1320877033
0.1538470635
0.1764741157
0.1997462640
0.2234091447
0.2471766260
0.2707308082
0.2937220234
0.3157688356
0.3364583702
0.3554835114
0.3725128573
0.3871601263
0.3991047797
0.4080934819
0.4139404114
0.4165272609
0.4158032370
0.4117850605
0.4045569661
0.3942707027
0.3811455333
0.3654682351
0.3475926076
0.3277687485
0.3063287968
0.2837241320
0.2603717747
0.2366543872
0.2129202734
0.1894833786
0.1666232895
0.1445852346
0.1235800836
0.1037843479
0.0853401804
0.0683553753
0.0529589999
0.0392303058
0.0270672927
0.0163664085
0.0070269786
-0.0010487685
-0.0079557017
-0.0137857872
-0.0186280884
-0.0225687657
-0.0256910770
-0.0280753773
-0.0297991190
-0.0309368515
-0.0315602215
-0.0317379730
-0.0315359471
-0.0310170823
-0.0302414143
-0.0292660758
-0.0281026702
-0.0266534526
-0.0247993777
-0.0224067278
-0.0193271109
-0.0153966708
-0.0104340472
-0.0042425719
0.0033890975
0.0126869778
0.0238917598
0.0372588086
0.0531012584
0.0714196499
0.0918225659
0.1138489888
0.1369724444
0.1606010023
0.1840772754
0.2066784202
0.2276161368
0.2460366690
0.2610208037
0.2715838719
0.2767409424
0.2763100598
0.2707268960
0.2605008699
0.2462044676
0.2284732419
0.2080049571
0.1855569855
0.1619489657
0.1380639908
0.1148483502
0.0933411282
0.0751186010
0.0595946246
0.0454397917
0.0314332880
0.0164628927
-0.0004750220
-0.0202754907
-0.0437249548
-0.0715012623
-0.1041736682
-0.1421095765
-0.1762290303
-0.1844666374
-0.1494310965
-0.0601054169
0.0881530817
0.2936127687
0.5484105436
0.8188541782
1.0360426353
1.1495711773
1.1333354681
0.9855573770
0.7381355229
0.4539085454
0.1845630514
-0.0351104371
-0.1872174828
-0.2645109829
-0.2791792815
-0.2532857297
-0.2051312054
-0.1492512031
-0.0964158328
-0.0536298208
-0.0241294668
-0.0054630595
0.0069969406
0.0160537921
0.0238870305
0.0320524683
0.0414821951
0.0524845773
0.0647488976
0.0781582709
0.0929821289
0.1092461730
0.1269363419
0.1459989972
0.1663411314
0.1878303691
0.2102949675
0.2335238166
0.2573195221
0.2814741479
0.3055492590
0.3291187662
0.3517827290
0.3731673559
0.3929250044
0.4107341808
0.4262995407
0.4393518883
0.4496481769
0.4569715088
0.4611311352
0.4619216034
0.4589434800
0.4524171887
0.4426970180
0.4301313675
0.4150617447
0.3978221994
0.3787393235
0.3581322504
0.3363126556
0.3135847560
0.2902453107
0.2665836203
0.2428815273
0.2194134161
0.1964462129
0.1742393853
0.1530449433
0.1331074383
0.1146639636
0.0978841450
0.0827155552
0.0690942051
0.0569547507
0.0462286376
0.0368441012
0.0287261668
0.0217966494
0.0159739053
0.0111714441
0.0072989132
0.0042629191
0.0019669977
0.0003114792
-0.0008065166
-0.0014930800
-0.0018513310
-0.0019003924
-0.0016564577
-0.0011278295
-0.0002984736
0.0008719810
0.0024482419
0.0045193536
0.0071986972
0.0106239908
0.0149572889
0.0203849831
0.0271178016
0.0353908093
0.0454634080
0.0576193360
0.0721601974
0.0891228361
0.1082777729
0.1293011129
0.1517760923
0.1751930762
0.1989495581
0.2223501602
0.2446066331
0.2648378561
0.2820698372
0.2952357128
0.3032946606
0.3059925510
0.3035100129
0.2961391499
0.2842823205
0.2684521387
0.2492714736
0.2274734498
0.2039014469
0.1795090999
0.1553602989
0.1325706697
0.1116457597
0.0928291010
0.0761015337
0.0611092553
0.0471640947
0.0332438322
0.0179922133
-0.0002811031
-0.0236005477
-0.0543246413
-0.0950298332
-0.1364454952
-0.1601989068
-0.1510045001
-0.0969438506
0.0105343228
0.1766141577
0.4042129007
0.6834307421
0.9430430381
1.1216700381
1.1826252009
1.1139151945
0.9282398960
0.6642866459
0.3809065454
0.1228372388
-0.0801997121
-0.2127217725
-0.2734854886
-0.2754865554
-0.2385290235
-0.1809841168
-0.1202404574
-0.0678583947
-0.0295697152
-0.0052776418
0.0104985446
0.0217495868
0.0304566506
0.0383647460
0.0467189902
0.0562646082
0.0672469321
0.0794477112
0.0929119015
0.1077726587
0.1240469105
0.1417130166
0.1607107686
0.1809413907
0.2022675389
0.2245133273
0.2474655900
0.2709863736
0.2947584702
0.3183510401
0.3413572384
0.3633942365
0.3841032220
0.4031493987
0.4202219866
0.4350342221
0.4473233577
0.4568506619
0.4634014199
0.4667849327
0.4667227579
0.4629068096
0.4556472157
0.4452904748
0.4321761302
0.4166367692
0.3989980233
0.3795785687
0.3586901253
0.3366374578
0.3137182587
0.2902217532
0.2664291528
0.2426146914
0.2190456473
0.1959823429
0.1736781451
0.1523794648
0.1323257576
0.1137495229
0.0968206703
0.0814851875
0.0676709397
0.0553055335
0.0443142768
0.0346201784
0.0261439484
0.0188039978
0.0125164389
0.0071950851
0.0027514509
-0.0009052481
-0.0038680952
-0.0062324724
-0.0080960609
-0.0095585820
-0.0107181268
-0.0116596865
-0.0123943047
-0.0128964270
-0.0131222510
-0.0130094271
-0.0124770586
-0.0114257017
-0.0097373654
-0.0072755116
-0.0038850551
0.0006076365
0.0063947426
0.0136869897
0.0227136517
0.0337225493
0.0469800506
0.0627220169
0.0808412312
0.1010402807
0.1229207970
0.1459803358
0.1696123763
0.1931063216
0.2156471692
0.2363099339
0.2540604503
0.2678471019
0.2770680933
0.2813640863
0.2805744256
0.2747447869
0.2641271762
0.2491799306
0.2305677180
0.2091615367
0.1860387161
0.1622096122
0.1382858832
0.1153815675
0.0943002416
0.0754844626
0.0590157680
0.0446146758
0.0316406846
0.0190922732
0.0056069012
-0.0104111184
-0.0326547561
-0.0636937085
-0.1018219212
-0.1410283222
-0.1710764564
-0.1794682077
-0.1470939882
-0.0593965413
0.0895785181
0.2971827031
0.5532131028
0.8231614871
1.0388057432
1.1509544611
1.1343833365
0.9878379371
0.7411755579
0.4557834299
0.1835086977
-0.0404935209
-0.1977601352
-0.2830774793
-0.3014632019
-0.2761951381
-0.2275059187
-0.1711705568
-0.1185065750
-0.0763771658
-0.0471914059
-0.0289009245
-0.0162825014
-0.0067644476
0.0011995286
0.0088620374
0.0171643008
0.0267361526
0.0378960383
0.0506510151
0.0647070408
0.0800354638
0.0967617689
0.1148502676
0.1342259705
0.1547745869
0.1763425251
0.1987368924
0.2217254947
0.2450368371
0.2683601234
0.2913764071
0.3138476227
0.3353154241
0.3553326073
0.3735036643
0.3894830585
0.4029749174
0.4137331459
0.4215615424
0.4263137994
0.4278935036
0.4262541359
0.4213990716
0.4133773367
0.4021426235
0.3879497167
0.3711945968
0.3522604644
0.3315177405
0.3093240664
0.2860243035
0.2619505338
0.2374220591
0.2127454019
0.1882143047
0.1641097305
0.1406998623
0.1182400904
0.0969724925
0.0771276834
0.0588625944
0.0421587422
0.0269723405
0.0132550937
0.0009541967
-0.0099876653
-0.0196323166
-0.0280460907
-0.0352998311
-0.0414688904
-0.0466331309
-0.0508769244
-0.0542891523
-0.0569632053
-0.0589969838
-0.0604928976
-0.0615578661
-0.0623033181
-0.0628407658
-0.0631925846
-0.0633029414
-0.0631025091
-0.0625097253
-0.0614309836
-0.0597607229
-0.0573811704
-0.0541623842
-0.0499622384
-0.0446263699
-0.0379881763
-0.0298688167
-0.0200772110
-0.0084100405
0.0053482527
0.0214254653
0.0399593996
0.0606118039
0.0828673901
0.1061447726
0.1297959559
0.1531063346
0.1752946931
0.1955132058
0.2128474372
0.2263163417
0.2350167914
0.2386320477
0.2371151511
0.2305866987
0.2193358107
0.2038192081
0.1846611197
0.1626532819
0.1387549391
0.1140928432
0.0894890962
0.0655938575
0.0433838254
0.0234399830
0.0059430528
-0.0093265032
-0.0229884840
-0.0360629487
-0.0499702177
-0.0663972774
-0.0880768875
-0.1181109798
-0.1555961762
-0.1953000610
-0.2276611807
-0.2387905365
-0.2163085315
-0.1418810598
-0.0017053354
0.2025103559
0.4535477869
0.7186793308
0.9498500035
1.0907127336
1.1032413974
0.9811872941
0.7505436161
0.4681201295
0.1899627588
-0.0474715040
-0.2215410670
-0.3242844886
-0.3619837301
-0.3472920154
-0.3012645743
-0.2430147481
-0.1863784392
-0.1399141115
-0.1068863143
-0.0846905874
-0.0697804714
-0.0596834731
-0.0523065875
-0.0459356385
-0.0392346010
-0.0312467810
-0.0213949771
-0.0094814811
0.0043119224
0.0194239559
0.0353782881
0.0526697812
0.0712628592
0.0910539924
0.1119043815
0.1336399572
0.1560513804
0.1788940420
0.2018880631
0.2247182949
0.2470343189
0.2684518840
0.2886918799
0.3073904365
0.3241283155
0.3385468863
0.3503481260
0.3592946155
0.3652087001
0.3679714261
0.3675241815
0.3638685243
0.3570658032
0.3472378850
0.3345672443
0.3191978109
0.3013639333
0.2814869634
0.2599692660
0.2371930371
0.2135203042
0.1892929267
0.1648325950
0.1404408313
0.1163989892
0.0929682538
0.0703896417
0.0488840010
0.0286520114
0.0098907608
-0.0073409396
-0.0230784081
-0.0373628590
-0.0502402119
-0.0617593345
-0.0719744934
-0.0809458065
-0.0887392437
-0.0954266259
-0.1010856259
-0.1057997677
-0.1096584273
-0.1127568316
-0.1151960596
-0.1170830415
-0.1185305590
-0.1196563450
-0.1205247026
-0.1211318518
-0.1214599910
-0.1214741049
-0.1211219652
-0.1203341302
-0.1190239447
-0.1170875405
-0.1144038360
-0.1108345361
-0.1062241340
-0.1004009403
-0.0931789840
-0.0843555980
-0.0737107041
-0.0610064248
-0.0459875610
-0.0284244972
-0.0085467095
0.0131536852
0.0361301627
0.0597821866
0.0834552077
0.1064406647
0.1279759837
0.1472445784
0.1633758502
0.1754451879
0.1825130554
0.1842348216
0.1807965974
0.1725062275
0.1597884551
0.1431849215
0.1233541661
0.1010716269
0.0772301467
0.0528410873
0.0289644909
0.0059374128
-0.0153865740
-0.0343274509
-0.0506990419
-0.0648090137
-0.0774588754
-0.0899439791
-0.1040535192
-0.1220702643
-0.1466514957
-0.1791447141
-0.2172042298
-0.2544644506
-0.2805398818
-0.2810251265
-0.2410545089
-0.1471579566
0.0124896490
0.2333250171
0.4939486545
0.7561248657
0.9651798305
1.0674554879
1.0386109182
0.8825653389
0.6310140358
0.3429694763
0.0753765940
-0.1428924758
-0.2949713511
-0.3765727927
-0.3959887048
-0.3692466449
-0.3160629904
-0.2554014470
-0.2002749688
-0.1577455723
-0.1289243363
-0.1098663163
-0.0970485713
-0.0878744276
-0.0802566929
-0.0726374115
-0.0639878642
-0.0538085691
-0.0421292805
-0.0293888345
-0.0153953743
-0.0000254081
0.0167245718
0.0348189681
0.0541830784
0.0747030950
0.0962261055
0.1185600922
0.1414739323
0.1646973981
0.1879911068
0.2110997549
0.2335593064
0.2549372493
0.2748408738
0.2929172723
0.3088533393
0.3223757716
0.3332510681
0.3412855300
0.3463252607
0.3482561656
0.3470039525
0.3425171778
0.3346765462
0.3237382350
0.3100438144
0.2939292467
0.2757258804
0.2557602982
0.2343544062
0.2118255183
0.1884863561
0.1646450498
0.1406051370
0.1166655638
0.0931206843
0.0702602605
0.0483694625
0.0277288584
0.0085427345
-0.0091651467
-0.0253989133
-0.0401726305
-0.0535103004
-0.0654458620
-0.0760231910
-0.0852961001
-0.0933283390
-0.1001935941
-0.1059748435
-0.1107616654
-0.1146525003
-0.1177557248
-0.1201896525
-0.1220825339
-0.1235676069
-0.1246455159
-0.1253494393
-0.1257428944
-0.1258638671
-0.1257248121
-0.1253126524
-0.1245887799
-0.1234890550
-0.1219238065
-0.1197778321
-0.1169103979
-0.1131552387
-0.1083205579
-0.1021890275
-0.0945177879
-0.0850384484
-0.0734643594
-0.0596193955
-0.0434799271
-0.0251401267
-0.0048134246
0.0171682190
0.0403546310
0.0641773415
0.0879493342
0.1108650404
0.1320003386
0.1503125546
0.1647046301
0.1746011275
0.1796074802
0.1795048232
0.1742968710
0.1642099174
0.1496928357
0.1314170788
0.1102766788
0.0873346934
0.0634311838
0.0395238556
0.0164384619
-0.0052000159
-0.0249673685
-0.0426400848
-0.0581949368
-0.0716848971
-0.0809114784
-0.0904479344
-0.1056187892
-0.1291598369
-0.1612181414
-0.1993520363
-0.2385311251
-0.2711362810
-0.2874770153
-0.2737160648
-0.2083961120
-0.0800828567
0.1105591628
0.3507665692
0.6156960347
0.8644194670
1.0322467412
1.0753233470
0.9823969276
0.7746339602
0.5005422586
0.2180659404
-0.0292238397
-0.2153316227
-0.3301378903
-0.3726775800
-0.3638361128
-0.3241622974
-0.2702349965
-0.2146630942
-0.1660854958
-0.1291711279
-0.1045898663
-0.0875630099
-0.0746167188
-0.0642946144
-0.0553418240
-0.0467049809
-0.0375322246
-0.0271732005
-0.0151790601
-0.0013024609
0.0145024335
0.0320799537
0.0510729240
0.0710066888
0.0920978534
0.1142875732
0.1373530187
0.1610525547
0.1851259048
0.2092941520
0.2332597392
0.2567064691
0.2792995041
0.3006853663
0.3204919378
0.3383284601
0.3538038893
0.3666796473
0.3767111758
0.3836924176
0.3874803344
0.3879949068
0.3852191337
0.3791990333
0.3700436422
0.3579250158
0.3430782284
0.3258013729
0.3064555611
0.2854405768
0.2630147594
0.2395807654
0.2155525503
0.1913065046
0.1671819148
0.1434813307
0.1204698161
0.0983748623
0.0773863877
0.0576567382
0.0393006869
0.0223954343
0.0069965598
-0.0067711512
-0.0189822694
-0.0297539527
-0.0391981128
-0.0474214155
-0.0545252807
-0.0606058822
-0.0657541479
-0.0700557597
-0.0735911535
-0.0764355193
-0.0786588011
-0.0803257106
-0.0814958712
-0.0822237594
-0.0825586073
-0.0825444012
-0.0822198813
-0.0816185418
-0.0807697282
-0.0796795616
-0.0781919339
-0.0761121726
-0.0732473380
-0.0694062236
-0.0643993556
-0.0580389933
-0.0501391287
-0.0405154871
-0.0289855263
-0.0153684373
0.0005148560
0.0189288124
0.0398700489
0.0626079743
0.0863859374
0.1104558298
0.1340780065
0.1565203241
0.1770584506
0.1949765810
0.2095672547
0.2201309922
0.2259767582
0.2264171715
0.2209406727
0.2102703461
0.1954027208
0.1772729315
0.1567547183
0.1346604266
0.1117410075
0.0886860175
0.0661236184
0.0446205777
0.0246822681
0.0067526680
-0.0086538960
-0.0198678287
-0.0301757964
-0.0433184317
-0.0617062915
-0.0864196681
-0.1172058866
-0.1524799369
-0.1893266732
-0.2236874705
-0.2422302190
-0.2223003091
-0.1486978049
-0.0147485763
0.1776957003
0.4182575423
0.6866724868
0.9289062795
1.0822882514
1.1104464884
1.0042565010
0.7839859496
0.5063171013
0.2273242220
-0.0129014815
-0.1902392045
-0.2948901283
-0.3354169045
-0.3261657503
-0.2827044100
-0.2218223444
-0.1615197091
-0.1145634834
-0.0805400405
-0.0572398414
-0.0419630164
-0.0315193398
-0.0224216271
-0.0131345874
-0.0032381432
0.0076329836
0.0197411433
0.0332457593
0.0482033273
0.0645701649
0.0823371588
0.1014853816
0.1219279253
0.1435439056
0.1661784620
0.1896427573
0.2137139782
0.2381353349
0.2626160612
0.2868314145
0.3104227763
0.3329997140
0.3541461891
0.3735949617
0.3909912453
0.4059551951
0.4181733165
0.4273984651
0.4334498470
0.4362130183
0.4356398854
0.4317487050
0.4246240841
0.4144169797
0.4013446993
0.3856909006
0.3678055916
0.3479645376
0.3264598275
0.3037439828
0.2802358836
0.2563202181
0.2323474819
0.2086339786
0.1854618196
0.1630788860
0.1416978798
0.1214962544
0.1026172193
0.0851698370
0.0692589363
0.0550076831
0.0423310834
0.0311253799
0.0212899106
0.0127271080
0.0053424998
-0.0009552919
-0.0062545498
-0.0106404619
-0.0141951213
-0.0169975263
-0.0191235805
-0.0206460924
-0.0216347758
-0.0221562497
-0.0222740380
-0.0220485702
-0.0215371806
-0.0207941088
-0.0198536378
-0.0186398012
-0.0170348921
-0.0149076156
-0.0121121321
-0.0084880581
-0.0038604655
0.0019601180
0.0091777089
0.0180108683
0.0286927013
0.0414708576
0.0566328336
0.0743204000
0.0942113313
0.1158840633
0.1388479202
0.1625431144
0.1863407463
0.2095428047
0.2313821667
0.2510225974
0.2675587503
0.2800161670
0.2873687073
0.2891533809
0.2856923260
0.2774237707
0.2648581710
0.2485782264
0.2292385728
0.2075658754
0.1843590622
0.1604893296
0.1369001421
0.1146072326
0.0949273989
0.0779931246
0.0628862202
0.0486620007
0.0343511565
0.0189597535
0.0014692329
-0.0191635889
-0.0440065198
-0.0741519926
-0.1107773887
-0.1532787932
-0.1798795785
-0.1683822676
-0.1044176873
0.0185554213
0.1992505889
0.4285530812
0.6895167669
0.9452387461
1.1262664911
1.1850449623
1.1067258044
0.9091523120
0.6389550667
0.3548845697
0.1030102299
-0.0884560298
-0.2091192501
-0.2582043762
-0.2520167812
-0.2126680576
-0.1579725748
-0.1014474780
-0.0523126891
-0.0154909063
0.0086927870
0.0249369570
0.0362826910
0.0448988521
0.0525367355
0.0605299731
0.0697947569
0.0808298722
0.0937169633
0.1081205630
0.1235207401
0.1402546087
0.1583659321
0.1777929848
0.1984334294
0.2201443164
0.2427420840
0.2660025585
0.2896609542
0.3134118730
0.3369484590
0.3600432081
0.3822190017
0.4030118755
0.4220095388
0.4388513746
0.4532284392
0.4648834628
0.4736108460
0.4792563777
0.4817170014
0.4809412788
0.4769294455
0.4697334104
0.4593643338
0.4459256108
0.4298337317
0.4114968990
0.3913069864
0.3696395384
0.3468537708
0.3232925701
0.2992824940
0.2751337709
0.2511403007
0.2275796537
0.2047130717
0.1827854672
0.1620254237
0.1426451960
0.1248134963
0.1085431846
0.0937954179
0.0805250159
0.0686811135
0.0582078377
0.0490431358
0.0411186107
0.0343592995
0.0286835154
0.0240031924
0.0202239233
0.0172449591
0.0149592095
0.0132532423
0.0120072840
0.0111370385
0.0106634942
0.0105269394
0.0106874112
0.0111334489
0.0118820942
0.0129788907
0.0144978846
0.0165416241
0.0192411598
0.0227560442
0.0272743323
0.0330125774
0.0402149292
0.0491519831
0.0600705004
0.0731265540
0.0884686618
0.1061091592
0.1259192526
0.1476290192
0.1708274071
0.1949622352
0.2193401934
0.2431268425
0.2653466141
0.2848836450
0.3007749475
0.3123712731
0.3191547161
0.3208285399
0.3173171775
0.3087662311
0.2955424724
0.2782338422
0.2576494511
0.2348195785
0.2109503443
0.1867461299
0.1631366010
0.1409653484
0.1207708687
0.1027867158
0.0869417588
0.0728598401
0.0598597080
0.0470854257
0.0330897556
0.0129886502
-0.0156880321
-0.0519480589
-0.0913368240
-0.1260719858
-0.1453490863
-0.1289613098
-0.0609213831
0.0668878500
0.2547134289
0.4949754639
0.7657930806
1.0056199174
1.1588866776
1.1902727480
1.0847756277
0.8634861656
0.5870762978
0.3086058720
0.0678106478
-0.1090279714
-0.2141572941
-0.2551848208
-0.2444611708
-0.1984247349
-0.1375830943
-0.0805899716
-0.0340622845
-0.0003383992
0.0212099009
0.0341774151
0.0438518082
0.0521640558
0.0602750000
0.0690465010
0.0790090916
0.0903619771
0.1030129676
0.1170207825
0.1324530512
0.1493121756
0.1675605631
0.1871207075
0.2078752085
0.2296666902
0.2522975257
0.2755326968
0.2992279073
0.3230319095
0.3464905867
0.3691800036
0.3907064065
0.4107062233
0.4288460633
0.4448227175
0.4583631583
0.4692245397
0.4771941972
0.4820896478
0.4837585902
0.4820124939
0.4765889958
0.4677912662
0.4559816550
0.4415143974
0.4247353963
0.4059816508
0.3855818673
0.3638566375
0.3411184385
0.3176716327
0.2938124679
0.2698290776
0.2460014803
0.2226015800
0.1998931663
0.1781319140
0.1575653833
0.1384330199
0.1209094397
0.1049572860
0.0905234134
0.0775511870
0.0659788993
0.0557397702
0.0467619466
0.0389685029
0.0322774408
0.0266016891
0.0218491040
0.0179230723
0.0147243694
0.0121493263
0.0100892008
0.0084302119
0.0071092594
0.0061325328
0.0054478526
0.0050288747
0.0048769726
0.0050212371
0.0055184765
0.0064532163
0.0079376994
0.0101118862
0.0131434543
0.0172277988
0.0225880322
0.0294749842
0.0381672020
0.0491168077
0.0629729713
0.0794213432
0.0980272141
0.1183267383
0.1398263904
0.1620010119
0.1842955897
0.2061259734
0.2268788757
0.2459118725
0.2625534025
0.2761027675
0.2858301321
0.2909765243
0.2907538347
0.2845665150
0.2731574021
0.2574873831
0.2384585317
0.2169425193
0.1937806147
0.1697836845
0.1457321926
0.1223762009
0.1004353685
0.0808158462
0.0654245884
0.0523555522
0.0392745417
0.0243473678
0.0062411282
-0.0158768644
-0.0423395950
-0.0729803586
-0.1071328983
-0.1436551550
-0.1786570694
-0.1886467886
-0.1515110739
-0.0548664663
0.1039407132
0.3178343636
0.5700086039
0.8328997592
1.0493253221
1.1577047140
1.1294089389
0.9702684917
0.7193800336
0.4337993248
0.1656978367
-0.0498772641
-0.1958017920
-0.2706214988
-0.2818725196
-0.2518856618
-0.2004016726
-0.1427968582
-0.0900830825
-0.0489077671
-0.0212983293
-0.0033841589
0.0085139785
0.0171207949
0.0245706663
0.0324076329
0.0415853994
0.0524673343
0.0648264708
0.0781520780
0.0928045465
0.1088557794
0.1262899438
0.1450504231
0.1650398172
0.1861199424
0.2081118315
0.2307957337
0.2539111145
0.2772335593
0.3004802969
0.3231892429
0.3449295125
0.3653045954
0.3839524411
0.4005454638
0.4147904536
0.4264285715
0.4352353500
0.4410206928
0.4436288747
0.4429385418
0.4387037377
0.4308844327
0.4198457907
0.4059484451
0.3895454842
0.3709824519
0.3505973471
0.3287206239
0.3056751918
0.2817764154
0.2573321145
0.2326425644
0.2080002169
0.1836878744
0.1599798325
0.1371428373
0.1154360897
0.0951112463
0.0763957550
0.0593292187
0.0438500253
0.0298942266
0.0173950690
0.0062829936
-0.0035143637
-0.0120721727
-0.0194684081
-0.0257838504
-0.0311020851
-0.0355095033
-0.0390953012
-0.0419514805
-0.0441728483
-0.0458570170
-0.0471044043
-0.0480182332
-0.0487160635
-0.0492834344
-0.0496450468
-0.0497038167
-0.0493543773
-0.0484830795
-0.0469679669
-0.0446787594
-0.0414768915
-0.0372155156
-0.0317395024
-0.0248854406
-0.0164816372
-0.0063481173
0.0057033758
0.0198693809
0.0363547184
0.0552982311
0.0763185169
0.0987905130
0.1220411819
0.1453489884
0.1679438993
0.1890073836
0.2076724126
0.2230234594
0.2340966501
0.2400806972
0.2408089417
0.2363701143
0.2270117844
0.2131403600
0.1953210875
0.1742780518
0.1508941766
0.1262112238
0.1013799176
0.0768974235
0.0537204854
0.0326970958
0.0142221607
-0.0017625007
-0.0157681560
-0.0287591593
-0.0421529514
-0.0578200598
-0.0780479479
-0.1057711231
-0.1412658039
-0.1804412541
-0.2148315219
-0.2315956537
-0.2146320113
-0.1512326368
-0.0242762456
0.1694234867
0.4156942999
0.6830051180
0.9224663682
1.0736979586
1.0981233944
0.9884293971
0.7664893799
0.4833634477
0.2053679141
-0.0306065157
-0.2027890960
-0.3030284344
-0.3368576813
-0.3192094540
-0.2700911717
-0.2100887139
-0.1536265835
-0.1089456170
-0.0781029841
-0.0578173485
-0.0444168431
-0.0351213909
-0.0276894356
-0.0204199330
-0.0121523846
-0.0022668383
0.0093161123
0.0221378108
0.0360444454
0.0513454079
0.0680426578
0.0860966369
0.1054262700
0.1259089645
0.1473806106
0.1696355812
0.1924267319
0.2154654010
0.2384684488
0.2611628965
0.2830840240
0.3037935350
0.3228938966
0.3400283396
0.3548808584
0.3671761273
0.3766782948
0.3831912613
0.3865596636
0.3866689020
0.3834287486
0.3766178222
0.3664610979
0.3533186547
0.3375442743
0.3194854415
0.2994833441
0.2778728725
0.2549826202
0.2311348835
0.2066456616
0.1818246566
0.1569752735
0.1323946202
0.1083735074
0.0851964487
0.0631416608
0.0424810600
0.0234153523
0.0059405562
-0.0099878353
-0.0244183300
-0.0374035178
-0.0490006072
-0.0592714433
-0.0682825082
-0.0761049207
-0.0828144365
-0.0884914480
-0.0932209845
-0.0970927123
-0.1002009343
-0.1026445903
-0.1045272569
-0.1059571475
-0.1070471125
-0.1079282191
-0.1086394572
-0.1090986635
-0.1092128991
-0.1088803821
-0.1079904886
-0.1064237518
-0.1040518624
-0.1007376688
-0.0963352069
-0.0906903283
-0.0836406786
-0.0750150872
-0.0646335407
-0.0523073619
-0.0378402578
-0.0210276088
-0.0016874090
0.0198855326
0.0430047126
0.0669475381
0.0909649835
0.1142815906
0.1360954685
0.1555782937
0.1718753101
0.1841053290
0.1913643522
0.1931156829
0.1895781819
0.1811430094
0.1683014912
0.1516451186
0.1318655485
0.1097546179
0.0862047164
0.0622088146
0.0388600314
0.0166679274
-0.0038421072
-0.0219315341
-0.0374253338
-0.0507120064
-0.0627435708
-0.0750355653
-0.0896670472
-0.1092805931
-0.1402670684
-0.1860368883
-0.2312628373
-0.2616379804
-0.2649510174
-0.2310862835
-0.1520237488
-0.0218390187
0.1632966664
0.4047323713
0.6740315051
0.9070485396
1.0511616549
1.0686988901
0.9438123818
0.7150724006
0.4367833704
0.1593593023
-0.0722236055
-0.2366114099
-0.3316645936
-0.3627825379
-0.3427319683
-0.2916435262
-0.2320708554
-0.1764754715
-0.1318662948
-0.1010613254
-0.0826876427
-0.0712671745
-0.0622098609
-0.0543105209
-0.0464249128
-0.0377378758
-0.0277633295
-0.0163442743
-0.0036195744
0.0104534373
0.0259491878
0.0428627738
0.0611474230
0.0807145290
0.1014336513
0.1231325147
0.1455970100
0.1685711937
0.1917572879
0.2148413743
0.2375869961
0.2595320484
0.2802145968
0.2992200994
0.3161814060
0.3307787588
0.3427397917
0.3518395311
0.3579003951
0.3607921940
0.3604321302
0.3567847981
0.3498146021
0.3395007103
0.3261877115
0.3102466865
0.2920421047
0.2719314908
0.2502653963
0.2273873692
0.2036332735
0.1793312803
0.1548025554
0.1303612910
0.1063147060
0.0829630458
0.0605995827
0.0395106132
0.0199170939
0.0018560857
-0.0146759213
-0.0296927201
-0.0432183871
-0.0552872817
-0.0659440465
-0.0752436075
-0.0832511735
-0.0900422367
-0.0957025727
-0.1003282419
-0.1040257248
-0.1069120092
-0.1091143871
-0.1107704336
-0.1120076713
-0.1128102088
-0.1132341784
-0.1133368977
-0.1131486479
-0.1126726739
-0.1118851840
-0.1107353503
-0.1091453083
-0.1070101572
-0.1041979598
-0.1005497423
-0.0958794947
-0.0899741705
-0.0825936869
-0.0734709244
-0.0623118112
-0.0488731421
-0.0330982362
-0.0150567395
0.0050550216
0.0269143229
0.0500722786
0.0739533753
0.0978554170
0.1209495275
0.1422803201
0.1607659938
0.1752738130
0.1852042318
0.1901250861
0.1898039614
0.1842520481
0.1737241416
0.1587186422
0.1399775552
0.1184864910
0.0952678408
0.0712405301
0.0474101905
0.0245788281
0.0033415976
-0.0159131981
-0.0330041077
-0.0479565317
-0.0599145189
-0.0687462632
-0.0805570738
-0.0994402239
-0.1269165184
-0.1619342935
-0.2008694170
-0.2375252883
-0.2632175063
-0.2666003422
-0.2251761129
-0.1230457722
0.0436726819
0.2668442077
0.5263167197
0.7876119333
0.9857782720
1.0665726354
1.0092067806
0.8264069233
0.5619588305
0.2771380685
0.0206236197
-0.1773047419
-0.3032896974
-0.3529014755
-0.3474756080
-0.3091968408
-0.2558643126
-0.2008915145
-0.1533062897
-0.1177507047
-0.0944808638
-0.0794777334
-0.0683160024
-0.0592702686
-0.0510311676
-0.0425662403
-0.0331199331
-0.0222135979
-0.0096454916
0.0045092231
0.0199259095
0.0366439184
0.0547318244
0.0741140245
0.0946761575
0.1162651049
0.1386889902
0.1617171791
0.1850802823
0.2084712488
0.2315470723
0.2539264301
0.2752382665
0.2951984314
0.3133556440
0.3293023774
0.3426955577
0.3532565640
0.3607712287
0.3650898372
0.3661271280
0.3638622929
0.3583389767
0.3496652772
0.3380137455
0.3235497653
0.3064708770
0.2872183636
0.2662222401
0.2438914645
0.2206139378
0.1967565040
0.1726649501
0.1486640047
0.1250557465
0.1021166262
0.0801012223
0.0592430564
0.0397545931
0.0218429112
0.0055656795
-0.0091182862
-0.0222561350
-0.0339009327
-0.0441116619
-0.0529532217
-0.0604964283
-0.0668180142
-0.0720006289
-0.0761328384
-0.0793091256
-0.0816298899
-0.0832014477
-0.0841360318
-0.0845517919
-0.0845727944
-0.0843234981
-0.0838494958
-0.0831440935
-0.0821840585
-0.0809238046
-0.0792984641
-0.0772246624
-0.0746005183
-0.0713056435
-0.0672011433
-0.0621296158
-0.0559151525
-0.0483633382
-0.0392612508
-0.0283774612
-0.0154620338
-0.0002465261
0.0175121750
0.0376333528
0.0596538932
0.0830383539
0.1071806817
0.1314042128
0.1549616727
0.1770351763
0.1967362275
0.2131057197
0.2251139357
0.2318760671
0.2332871926
0.2295311207
0.2209222110
0.2079053765
0.1910561748
0.1710813144
0.1488182964
0.1252351758
0.1014305608
0.0784346315
0.0564996727
0.0365725994
0.0192267931
0.0044798125
-0.0082066063
-0.0199265499
-0.0323299280
-0.0476224725
-0.0685673832
-0.0978515770
-0.1342301348
-0.1721497214
-0.2021688856
-0.2109580608
-0.1817423767
-0.1014787374
0.0437562625
0.2538292426
0.5100443943
0.7751434810
0.9937680703
1.1086945883
1.0898764460
0.9388255139
0.6886146808
0.4021818554
0.1353250110
-0.0806282620
-0.2279384656
-0.3032458139
-0.3168653653
-0.2849640350
-0.2297893356
-0.1695963002
-0.1165084837
-0.0765179621
-0.0494907435
-0.0313865626
-0.0190792186
-0.0100729927
-0.0023591746
0.0055856296
0.0148001854
0.0258386294
0.0387704602
0.0531804428
0.0685603494
0.0853270368
0.1034987524
0.1230167499
0.1437806170
0.1656482750
0.1884359788
0.2119183173
0.2358282128
0.2598569215
0.2836619787
0.3070038875
0.3294490909
0.3505209850
0.3697950970
0.3868990855
0.4015127403
0.4133679824
0.4222494231
0.4279967232
0.4305026248
0.4297120013
0.4256218575
0.4182733080
0.4076110174
0.3939199087
0.3776098769
0.3590775847
0.3387064629
0.3168667101
0.2939152926
0.2701959449
0.2460391691
0.2217622353
0.1976691814
0.1740508132
0.1511847044
0.1293351965
0.1087533989
0.0896688688
0.0721723773
0.0562472322
0.0418659915
0.0289926570
0.0175807718
0.0075748733
-0.0010886709
-0.0084816614
-0.0146840736
-0.0197841979
-0.0238786353
-0.0270721605
-0.0294777169
-0.0312164159
-0.0324175375
-0.0332008589
-0.0335517599
-0.0335280953
-0.0331888327
-0.0325641902
-0.0316556358
-0.0304358882
-0.0288489160
-0.0268099382
-0.0242054241
-0.0208930930
-0.0167019148
-0.0114321095
-0.0048549691
0.0032881547
0.0132870266
0.0259074227
0.0413425118
0.0591974695
0.0790465341
0.1004330066
0.1228692505
0.1458366917
0.1687858188
0.1911361832
0.2122763985
0.2315641412
0.2483261501
0.2618582267
0.2714252352
0.2762611022
0.2755688169
0.2688628216
0.2570856838
0.2412096972
0.2221534844
0.2008046503
0.1780197826
0.1546243726
0.1314122948
0.1091461307
0.0885574432
0.0709102065
0.0564249085
0.0433663488
0.0301677335
0.0154608041
-0.0019241707
-0.0229583949
-0.0484145450
-0.0788667706
-0.1146906936
-0.1538993693
-0.1778068579
-0.1657641325
-0.1036150523
0.0162979844
0.1951340403
0.4275536393
0.6977528629
0.9472679653
1.1138469938
1.1592887536
1.0695966292
0.8591756764
0.5850257440
0.3049560848
0.0607770655
-0.1217272512
-0.2278237678
-0.2656656846
-0.2562134665
-0.2174530786
-0.1643733432
-0.1089659399
-0.0602254059
-0.0241491358
-0.0016694937
0.0129747365
0.0231835266
0.0315178927
0.0398011361
0.0491188435
0.0598188866
0.0715893267
0.0845595454
0.0989035433
0.1146555996
0.1318118958
0.1503312224
0.1701346432
0.1911050503
0.2130871590
0.2358908945
0.2593948845
0.2832750480
0.3071202121
0.3305368311
0.3531489861
0.3745983857
0.3945443654
0.4126638880
0.4286515434
0.4422195485
0.4530977474
0.4610336113
0.4657922387
0.4669412800
0.4643474522
0.4583179607
0.4491591194
0.4371757345
0.4226711052
0.4059469685
0.3873029328
0.3670367022
0.3454444672
0.3228209110
0.2994592096
0.2756510313
0.2516865372
0.2278543813
0.2044417098
0.1817341619
0.1600158693
0.1395694565
0.1206755908
0.1034407159
0.0877836979
0.0736594968
0.0610169318
0.0497986814
0.0399412829
0.0313751330
0.0240244874
0.0178074610
0.0126360278
0.0084160208
0.0050471504
0.0024232278
0.0004320946
-0.0010445449
-0.0021151764
-0.0027707160
-0.0030682810
-0.0030626827
-0.0027799107
-0.0022170893
-0.0013424773
-0.0000954684
0.0016134092
0.0039024925
0.0069189839
0.0108389510
0.0158673269
0.0222379098
0.0302133635
0.0400701513
0.0519797960
0.0661292065
0.0825946993
0.1013092267
0.1220623774
0.1445003652
0.1681258753
0.1922980984
0.2162328580
0.2390026137
0.2595364612
0.2767291420
0.2898673593
0.2983534588
0.3018022826
0.3000552089
0.2931801520
0.2814715620
0.2654504254
0.2458642646
0.2236871378
0.2001163506
0.1758899254
0.1518993748
0.1292203166
0.1085630912
0.0902727619
0.0743291148
0.0603466588
0.0475746257
0.0348969594
0.0208504244
0.0033841741
-0.0216183032
-0.0552438876
-0.0942371989
-0.1310005663
-0.1544124094
-0.1481170010
-0.0944551808
0.0172714719
0.1905723140
0.4230113194
0.7008309866
0.9546343503
1.1250228239
1.1767241533
1.0985924171
0.9036080270
0.6346463732
0.3511401554
0.0971956084
-0.0982110801
-0.2212324808
-0.2731499224
-0.2696961208
-0.2285495459
-0.1696728297
-0.1097210063
-0.0594256563
-0.0235949068
-0.0011134312
0.0138862632
0.0245327661
0.0329076139
0.0407053146
0.0491123314
0.0588070828
0.0699599420
0.0823058373
0.0959520177
0.1110108914
0.1274938570
0.1453731000
0.1645815933
0.1850130972
0.2065221588
0.2289241130
0.2520003260
0.2756130832
0.2994066297
0.3229459704
0.3458201920
0.3676436901
0.3880562329
0.4067229613
0.4233343690
0.4376061100
0.4492790832
0.4581195586
0.4639191787
0.4664949589
0.4655238448
0.4608194237
0.4527264855
0.4415934889
0.4277616094
0.4115647398
0.3933294900
0.3733751870
0.3520138747
0.3295503145
0.3062819846
0.2824990805
0.2584845146
0.2345139635
0.2108573506
0.1877791498
0.1655366604
0.1443798987
0.1245515982
0.1062853921
0.0896662855
0.0746225415
0.0610882112
0.0489948150
0.0382713429
0.0288442539
0.0206374766
0.0135724088
0.0075679179
0.0025403403
-0.0015965179
-0.0049313815
-0.0075555057
-0.0095626767
-0.0110492109
-0.0121139558
-0.0128569831
-0.0133279313
-0.0135187412
-0.0134054038
-0.0129463936
-0.0120807078
-0.0107277196
-0.0087871790
-0.0061392020
-0.0026440778
0.0018577171
0.0075453366
0.0146175587
0.0232927846
0.0338090396
0.0464239722
0.0614068298
0.0787871749
0.0983452852
0.1197592626
0.1425879942
0.1662711522
0.1901291940
0.2133633621
0.2350556842
0.2541689730
0.2696609488
0.2808529687
0.2872021067
0.2883950571
0.2843553869
0.2752434467
0.2614563708
0.2436280772
0.2226292675
0.1995494014
0.1751699325
0.1505187614
0.1266154718
0.1042055068
0.0837601684
0.0654766179
0.0492778756
0.0348128210
0.0214561928
0.0084531746
-0.0061100228
-0.0267786472
-0.0556412559
-0.0917548765
-0.1311450064
-0.1670227024
-0.1853432766
-0.1679010852
-0.1011223211
0.0236270868
0.2100413865
0.4613133921
0.7357235116
0.9682653306
1.1120815897
1.1386752433
1.0379094741
0.8211971767
0.5428029107
0.2606596592
0.0163160686
-0.1646319723
-0.2725413323
-0.3137186439
-0.3019624838
-0.2560989240
-0.1967897037
-0.1389738877
-0.0918678666
-0.0589653568
-0.0380374004
-0.0237997652
-0.0136963946
-0.0056311128
0.0020145466
0.0103815580
0.0201334037
0.0314560743
0.0440662267
0.0578960365
0.0731369550
0.0897965902
0.1078425726
0.1272025546
0.1477642111
0.1693752389
0.1918433574
0.2149363079
0.2383872278
0.2620032735
0.2853972405
0.3081224281
0.3297647045
0.3499425071
0.3683068424
0.3845412863
0.3983619923
0.4095189971
0.4177975997
0.4230159985
0.4250249610
0.4236695057
0.4186350428
0.4101653283
0.3986181279
0.3843439022
0.3676858005
0.3489796603
0.3285540080
0.3067300583
0.2838217143
0.2601355679
0.2359708993
0.2116196773
0.1873665593
0.1634888910
0.1402567068
0.1179327295
0.0967723705
0.0770237297
0.0589120207
0.0424767857
0.0276492286
0.0143547862
0.0025168778
-0.0079425140
-0.0171028428
-0.0250449988
-0.0318513088
-0.0376055360
-0.0423928801
-0.0462999772
-0.0494149001
-0.0518271579
-0.0536276963
-0.0549088974
-0.0557645799
-0.0562899990
-0.0565818463
-0.0567168643
-0.0566726522
-0.0563878202
-0.0557855613
-0.0547736103
-0.0532442439
-0.0510742806
-0.0481250762
-0.0442404029
-0.0392431153
-0.0329397453
-0.0251213665
-0.0155635944
-0.0040265867
0.0097449990
0.0261494719
0.0451391354
0.0660336410
0.0881425608
0.1107731963
0.1332305788
0.1548174690
0.1748343571
0.1925794633
0.2073487368
0.2184358569
0.2251322322
0.2267270010
0.2224983859
0.2125270464
0.1978799903
0.1795936971
0.1586270637
0.1358600163
0.1120908940
0.0880397366
0.0643490021
0.0415835669
0.0202307257
0.0007001916
-0.0166759040
-0.0314154988
-0.0430461895
-0.0552514582
-0.0712490757
-0.0929693272
-0.1210550127
-0.1548614462
-0.1924564565
-0.2318875636
-0.2617973750
-0.2566870636
-0.1990200912
-0.0804809456
0.0980248595
0.3263707845
0.5852092635
0.8411255840
1.0286742044
1.0962049347
1.0259269333
0.8339699322
0.5669114475
0.2815095956
0.0248566692
-0.1733126629
-0.3007542328
-0.3585156263
-0.3580588655
-0.3216001441
-0.2675559271
-0.2101476963
-0.1594019495
-0.1211502012
-0.0961165637
-0.0798725908
-0.0690516069
-0.0609796796
-0.0536138389
-0.0455420766
-0.0359833472
-0.0247875669
-0.0124212076
0.0010608015
0.0159469648
0.0322554176
0.0499645409
0.0690129610
0.0892995500
0.1106834256
0.1329839509
0.1559807346
0.1794136310
0.2030433467
0.2266138310
0.2496637548
0.2717576154
0.2924951807
0.3115114897
0.3284768523
0.3430968491
0.3551123318
0.3642994230
0.3704695162
0.3734692758
0.3731806371
0.3694378188
0.3621207044
0.3515501037
0.3380702641
0.3220216846
0.3037400102
0.2835560315
0.2617956852
0.2387800721
0.2148256226
0.1902440187
0.1653420896
0.1404218104
0.1157803018
0.0917098307
0.0684978093
0.0464267963
0.0257742824
0.0067231875
-0.0107374785
-0.0266429044
-0.0410334202
-0.0539544975
-0.0654567492
-0.0755959295
-0.0844329341
-0.0920337999
-0.0984710045
-0.1038282070
-0.1081959619
-0.1116699655
-0.1143510553
-0.1163452102
-0.1177635506
-0.1187223381
-0.1193429758
-0.1197473457
-0.1199484607
-0.1198952293
-0.1195245301
-0.1187612315
-0.1175181924
-0.1156962614
-0.1131842774
-0.1098590693
-0.1055854561
-0.1002162469
-0.0935922408
-0.0855422272
-0.0758829853
-0.0644192846
-0.0509438845
-0.0352361606
-0.0170827683
0.0033033040
0.0253324859
0.0483658362
0.0717246002
0.0946902033
0.1165041244
0.1363679108
0.1534432927
0.1668521869
0.1756766852
0.1791557941
0.1773210703
0.1704891651
0.1590795486
0.1436145102
0.1247191580
0.1031214193
0.0796520402
0.0552445861
0.0309354411
0.0077261259
-0.0141743121
-0.0339520641
-0.0511071364
-0.0656893550
-0.0782929645
-0.0900534952
-0.1026477584
-0.1182938465
-0.1397511325
-0.1754408238
-0.2234663233
-0.2668261513
-0.2909777599
-0.2839757424
-0.2364718332
-0.1417149077
0.0044490174
0.2035767846
0.4543305778
0.7253980451
0.9459373698
1.0640005084
1.0527994403
0.9107008546
0.6672584637
0.3837380612
0.1123512983
-0.1113957207
-0.2686963730
-0.3506621254
-0.3679273394
-0.3435304582
-0.2964499409
-0.2415765651
-0.1897133063
-0.1475752931
-0.1177899632
-0.0988832754
-0.0861881118
-0.0769115025
-0.0693114309
-0.0620114974
-0.0540009194
-0.0446345317
-0.0336327861
-0.0210817516
-0.0073616272
0.0076577876
0.0240673724
0.0418329222
0.0608807426
0.0810976494
0.1023307279
0.1243857293
0.1470280648
0.1699836512
0.1929389160
0.2155413367
0.2375273355
0.2585229175
0.2780680645
0.2957561875
0.3112341270
0.3242021529
0.3344139646
0.3416766905
0.3458508889
0.3468505472
0.3446430823
0.3392493403
0.3307403816
0.3191187574
0.3046487746
0.2877188137
0.2687066645
0.2479795263
0.2258940078
0.2027958323
0.1790175640
0.1548798522
0.1306927445
0.1067556983
0.0833575800
0.0607766653
0.0392805896
0.0191237474
0.0004541209
-0.0167125441
-0.0323792329
-0.0465599411
-0.0592796744
-0.0705744489
-0.0804912909
-0.0890882370
-0.0964343342
-0.1026096394
-0.1077052203
-0.1118231544
-0.1150765298
-0.1175894447
-0.1194970075
-0.1209450908
-0.1219665242
-0.1225784551
-0.1228616387
-0.1228701094
-0.1226311997
-0.1221455403
-0.1213870599
-0.1203029857
-0.1188138427
-0.1168134543
-0.1141689421
-0.1107207257
-0.1062825231
-0.1006413502
-0.0935575212
-0.0847646486
-0.0739745934
-0.0609748846
-0.0456922213
-0.0281722779
-0.0085804336
0.0127982277
0.0355589172
0.0591771414
0.0830087021
0.1062896591
0.1281359407
0.1475434972
0.1633885695
0.1747584677
0.1813122348
0.1827520937
0.1790138474
0.1702684996
0.1569224224
0.1396174022
0.1192306394
0.0967619187
0.0731027070
0.0492648567
0.0260919199
0.0042426036
-0.0158092296
-0.0337745619
-0.0495492201
-0.0627395272
-0.0729056025
-0.0841968331
-0.0999310991
-0.1219306093
-0.1505220170
-0.1845378515
-0.2213160722
-0.2580184563
-0.2851229653
-0.2753931717
-0.2099404482
-0.0806572737
0.1097827666
0.3479249815
0.6095335734
0.8581854938
1.0339823475
1.0871222529
1.0020337485
0.7977319457
0.5259103836
0.2433745510
-0.0065093774
-0.1960729383
-0.3141078253
-0.3645055302
-0.3581895512
-0.3168855836
-0.2597025619
-0.2010762151
-0.1507680019
-0.1138542988
-0.0894745004
-0.0735320595
-0.0627119852
-0.0543620550
-0.0464927299
-0.0377767639
-0.0275495144
-0.0158091072
-0.0031031606
0.0107840031
0.0260410663
0.0426844162
0.0606908721
0.0799976849
0.1005025370
0.1220635430
0.1444992488
0.1675886324
0.1910711032
0.2147206992
0.2382742746
0.2612660897
0.2832613934
0.3038629339
0.3227108759
0.3394822171
0.3538907677
0.3656871502
0.3746587999
0.3806299642
0.3834617032
0.3830518893
0.3792947487
0.3720412407
0.3615814160
0.3482617594
0.3324238729
0.3144044757
0.2945354040
0.2731436111
0.2505511677
0.2270752613
0.2030281968
0.1787173960
0.1544453981
0.1305098592
0.1072035527
0.0848143008
0.0636235381
0.0438994059
0.0257555154
0.0091708663
-0.0058846091
-0.0194477567
-0.0315622381
-0.0422788522
-0.0516553737
-0.0597563571
-0.0666531349
-0.0724238173
-0.0771532927
-0.0809332271
-0.0838620645
-0.0860450268
-0.0875941138
-0.0886281031
-0.0892725504
-0.0896263192
-0.0896885764
-0.0894724223
-0.0889729995
-0.0881647292
-0.0870012636
-0.0854142624
-0.0833132868
-0.0805871071
-0.0771037727
-0.0727106110
-0.0672342285
-0.0604805097
-0.0522346182
-0.0422609957
-0.0303033628
-0.0160847183
0.0006332908
0.0197009772
0.0407602788
0.0633713292
0.0870125029
0.1110804147
0.1348899204
0.1576741162
0.1785843391
0.1966901666
0.2109794170
0.2204729089
0.2248574126
0.2240968979
0.2183165548
0.2078135554
0.1930583214
0.1746946040
0.1535394842
0.1305833724
0.1069654001
0.0833458220
0.0606336886
0.0396806541
0.0209746608
0.0046399391
-0.0095629928
-0.0222373287
-0.0343499744
-0.0472303022
-0.0622392883
-0.0836255451
-0.1139053491
-0.1513475083
-0.1899733620
-0.2195567812
-0.2277650900
-0.1987723184
-0.1126005661
0.0385965630
0.2497902439
0.5030752834
0.7678039512
0.9932649248
1.1172121559
1.1069664225
0.9639046332
0.7230211242
0.4395244309
0.1661670948
-0.0597992112
-0.2184500507
-0.3065177328
-0.3288183637
-0.3054457067
-0.2567134810
-0.1987327287
-0.1434118144
-0.0984564253
-0.0672350700
-0.0469033497
-0.0334547534
-0.0239171377
-0.0159541164
-0.0078654022
0.0014130245
0.0123093902
0.0246161703
0.0378840324
0.0524965182
0.0685190265
0.0859506565
0.1047512359
0.1248413944
0.1461025693
0.1683770052
0.1914677539
0.2151386749
0.2391515130
0.2632823789
0.2870989739
0.3101782843
0.3321267301
0.3525801662
0.3712038813
0.3876925988
0.4017704760
0.4131911047
0.4217375109
0.4272221343
0.4294868157
0.4282115651
0.4232671329
0.4150050616
0.4037738380
0.3899144174
0.3737602236
0.3556371485
0.3358635524
0.3147502639
0.2926005800
0.2697102660
0.2463675556
0.2228531506
0.1994402214
0.1763944067
0.1539738133
0.1324290166
0.1120030602
0.0929314561
0.0754398789
0.0596232729
0.0454066179
0.0327054441
0.0214356205
0.0115132232
0.0028547923
-0.0046226375
-0.0110015363
-0.0163638796
-0.0207911467
-0.0243641731
-0.0271629959
-0.0292671212
-0.0307555597
-0.0317068276
-0.0321989461
-0.0323094414
-0.0321153449
-0.0316931932
-0.0310832936
-0.0302254629
-0.0290413104
-0.0274353188
-0.0252946974
-0.0224893816
-0.0188720335
-0.0142780416
-0.0085255199
-0.0014151470
0.0072700046
0.0177641771
0.0303188861
0.0452446508
0.0629191689
0.0829380818
0.1047408651
0.1277411707
0.1513268266
0.1748598370
0.1976763824
0.2190868191
0.2383756799
0.2548016738
0.2675976856
0.2759707767
0.2791021843
0.2762204883
0.2677288951
0.2546311006
0.2378732146
0.2183418546
0.1968641463
0.1742077237
0.1510809445
0.1281331705
0.1059543408
0.0850749025
0.0659658107
0.0490385281
0.0351708648
0.0247237510
0.0135556168
-0.0015962772
-0.0226306762
-0.0500823313
-0.0831219997
-0.1195564445
-0.1558881488
-0.1858673989
-0.1873442928
-0.1407116654
-0.0352419451
0.1309128468
0.3507210955
0.6082715931
0.8724283670
1.0769745046
1.1692285253
1.1269584414
0.9583722455
0.7016977674
0.4165693093
0.1524347371
-0.0584708361
-0.2009331121
-0.2690197038
-0.2782269419
-0.2493579309
-0.1997334438
-0.1431919213
-0.0900894726
-0.0472998747
-0.0181128299
0.0006433488
0.0133070537
0.0226923134
0.0309653987
0.0396448222
0.0496013386
0.0610579442
0.0736336895
0.0873897547
0.1025314556
0.1190830979
0.1370293756
0.1563168571
0.1768543117
0.1985127095
0.2211252213
0.2444872188
0.2684361722
0.2927260711
0.3169272589
0.3406308422
0.3634506722
0.3850233452
0.4050082024
0.4230873295
0.4389655574
0.4523704617
0.4630523629
0.4707843263
0.4753621619
0.4765565394
0.4739410884
0.4677292877
0.4582606408
0.4458680892
0.4308798235
0.4136233784
0.3944209281
0.3735880842
0.3514338958
0.3282608493
0.3043648687
0.2800353156
0.2555549887
0.2312001245
0.2072403968
0.1839389168
0.1615522333
0.1403303325
0.1205166379
0.1023398964
0.0858374592
0.0709396750
0.0575875556
0.0457192343
0.0352699662
0.0261721278
0.0183552171
0.0117458537
0.0062677787
0.0018394790
-0.0016321658
-0.0042451580
-0.0061003788
-0.0073015876
-0.0079554224
-0.0081713995
-0.0080364908
-0.0075585521
-0.0067604591
-0.0056449095
-0.0041912181
-0.0023553171
-0.0000697561
0.0027562981
0.0062370613
0.0105101317
0.0157364907
0.0221005019
0.0298099118
0.0390958495
0.0502128266
0.0634388742
0.0790380078
0.0969385814
0.1168801322
0.1385197226
0.1614260588
0.1850774359
0.2088617380
0.2320764380
0.2539285978
0.2735348681
0.2899214888
0.3020243029
0.3089295097
0.3105484649
0.3070726001
0.2988032531
0.2861516679
0.2696389944
0.2498962885
0.2276645123
0.2037945338
0.1792471271
0.1550929725
0.1323912771
0.1115311759
0.0928013055
0.0762018959
0.0613902577
0.0476766365
0.0340279480
0.0190693178
0.0010840814
-0.0219862156
-0.0525418179
-0.0932898129
-0.1347316031
-0.1588127228
-0.1505627197
-0.0982855201
0.0064405717
0.1687628729
0.3910145594
0.6691942995
0.9360179442
1.1268571555
1.2021711390
1.1475066435
0.9734979611
0.7160798090
0.4332747977
0.1711816607
-0.0399624518
-0.1831143985
-0.2544230508
-0.2632309463
-0.2305520492
-0.1751644190
-0.1140238560
-0.0594510725
-0.0182284784
0.0083998192
0.0247251755
0.0364812437
0.0454477986
0.0533608516
0.0614926595
0.0706517242
0.0811827932
0.0929728699
0.1059754938
0.1203455118
0.1361074963
0.1532479540
0.1717153261
0.1914199886
0.2122342515
0.2339923599
0.2564905465
0.2795868976
0.3030092560
0.3263284587
0.3491386426
0.3710573227
0.3917253927
0.4108071229
0.4279900833
0.4429851246
0.4555264701
0.4653717212
0.4723018582
0.4761212396
0.4766176726
0.4733778673
0.4666106935
0.4566633094
0.4438759705
0.4285820290
0.4111079345
0.3917732335
0.3708905695
0.3487656834
0.3256974128
0.3019775291
0.2778897953
0.2537106139
0.2297094829
0.2061489975
0.1832848498
0.1613658290
0.1406338217
0.1213238110
0.1036477720
0.0876120849
0.0731425402
0.0601710484
0.0486269899
0.0384372158
0.0295260476
0.0218152768
0.0152241657
0.0096694466
0.0050653223
0.0013234661
-0.0016469785
-0.0039393978
-0.0056497073
-0.0068763526
-0.0077203861
-0.0082771282
-0.0085695367
-0.0085953034
-0.0083352483
-0.0077497302
-0.0067786471
-0.0053414349
-0.0033369313
-0.0006432472
0.0028819980
0.0074016456
0.0130989982
0.0201778189
0.0288623322
0.0393972232
0.0520476382
0.0670560289
0.0843648504
0.1037906413
0.1250339767
0.1476671352
0.1711341000
0.1947505577
0.2177038993
0.2390535142
0.2577431051
0.2729157645
0.2838399907
0.2899438060
0.2909014771
0.2866335157
0.2773066780
0.2633339651
0.2453746226
0.2243341410
0.2011027691
0.1765708765
0.1518578133
0.1278640822
0.1052674533
0.0845229630
0.0658629152
0.0492968803
0.0346116958
0.0213714660
0.0091488764
-0.0052218874
-0.0251927786
-0.0523318632
-0.0863230404
-0.1249844052
-0.1627046149
-0.1840106348
-0.1731536350
-0.1171022322
-0.0055424897
0.1697641754
0.4115638098
0.6770489425
0.9178946734
1.0915407624
1.1611916287
1.0959309367
0.8986971042
0.6313059123
0.3501131222
0.0972574189
-0.0993395882
-0.2246503404
-0.2755688540
-0.2729944832
-0.2374517677
-0.1856631982
-0.1305492158
-0.0812280282
-0.0430136625
-0.0174165634
-0.0006867745
0.0113350787
0.0204832402
0.0282910332
0.0359908607
0.0445142053
0.0544916289
0.0662527735
0.0798263601
0.0949401898
0.1110949376
0.1284664320
0.1471236562
0.1669656952
0.1878551216
0.2096179965
0.2320438691
0.2548857767
0.2778602448
0.3006472871
0.3228904053
0.3442065411
0.3643393915
0.3828784713
0.3993930337
0.4135148952
0.4249384152
0.4334204961
0.4387805835
0.4409006657
0.4397253790
0.4352624315
0.4275822406
0.4168177667
0.4031645133
0.3868365709
0.3679891433
0.3470475338
0.3244464372
0.3005957609
0.2758806247
0.2506613612
0.2252735153
0.2000278447
0.1752103194
0.1510821222
0.1278796484
0.1058143620
0.0850706818
0.0658135046
0.0481891895
0.0321691230
0.0176921136
0.0046939374
-0.0068926626
-0.0171379761
-0.0261153253
-0.0339010656
-0.0405745849
-0.0462183040
-0.0509176764
-0.0547611886
-0.0578403595
-0.0602497411
-0.0620869180
-0.0634525078
-0.0644501606
-0.0651922755
-0.0657594293
-0.0660989262
-0.0661344110
-0.0657787132
-0.0649338410
-0.0634908717
-0.0613299654
-0.0583204636
-0.0543208925
-0.0491789636
-0.0427315728
-0.0348048014
-0.0252139441
-0.0137637245
-0.0002481733
0.0155494926
0.0338170169
0.0543042762
0.0764662803
0.0996971057
0.1233309011
0.1466418872
0.1688443573
0.1890926768
0.2064812833
0.2200446868
0.2288431451
0.2325011885
0.2309888641
0.2244403788
0.2131560542
0.1976023095
0.1784107938
0.1563783491
0.1324670100
0.1078040035
0.0832341337
0.0593847957
0.0372570493
0.0174420782
0.0001122487
-0.0149788900
-0.0284966060
-0.0415249848
-0.0555669288
-0.0724471428
-0.0948963053
-0.1256944444
-0.1635665509
-0.2028496296
-0.2334926990
-0.2410570609
-0.2127538371
-0.1306997383
0.0180265307
0.2301115447
0.4860071769
0.7499303792
0.9702580607
1.0913684732
1.0806982518
0.9373667956
0.6923874334
0.4066169087
0.1349479097
-0.0891159596
-0.2460801352
-0.3312092396
-0.3534340470
-0.3276067120
-0.2758810364
-0.2165386096
-0.1622230857
-0.1199401843
-0.0908573554
-0.0705772799
-0.0563147168
-0.0460900199
-0.0381955162
-0.0311955422
-0.0239276224
-0.0155027235
-0.0053038729
0.0070139289
0.0215237085
0.0380265196
0.0560514429
0.0749070694
0.0948205267
0.1159025005
0.1379512862
0.1607416216
0.1840246876
0.2075281074
0.2309559472
0.2539887159
0.2762833648
0.2974732883
0.3171683233
0.3349547493
0.3504970417
0.3635306431
0.3737621169
0.3809623265
0.3849665430
0.3856752539
0.3830544470
0.3771345764
0.3680104841
0.3558414000
0.3408509421
0.3233271161
0.3036223193
0.2821534467
0.2593284490
0.2353944562
0.2107709462
0.1858565471
0.1610100063
0.1365501902
0.1127560843
0.0898667932
0.0680815407
0.0475596696
0.0284206420
0.0107440390
-0.0054304393
-0.0200528426
-0.0330837641
-0.0446355045
-0.0548202536
-0.0637446138
-0.0715104724
-0.0782150788
-0.0839510448
-0.0888063443
-0.0928643135
-0.0962036507
-0.0988984166
-0.1010180341
-0.1026272883
-0.1037863265
-0.1045506584
-0.1049711558
-0.1050940527
-0.1049616991
-0.1045609671
-0.1037786835
-0.1024823792
-0.1005275311
-0.0977575625
-0.0940038429
-0.0890856880
-0.0828103597
-0.0749731026
-0.0653597558
-0.0537485084
-0.0399059116
-0.0235097241
-0.0044441361
0.0167411574
0.0394374153
0.0630096635
0.0867966860
0.1101110181
0.1322389603
0.1524405793
0.1699497087
0.1839739484
0.1936946650
0.1982669915
0.1968856209
0.1898091777
0.1779217589
0.1620796750
0.1431071377
0.1217962599
0.0989070557
0.0751674406
0.0512732714
0.0278924703
0.0056685769
-0.0147861309
-0.0328875380
-0.0483588851
-0.0622424087
-0.0759995300
-0.0912475214
-0.1097595066
-0.1334644606
-0.1644472098
-0.2053511965
-0.2482931153
-0.2770532709
-0.2773676806
-0.2370713580
-0.1460983135
0.0035184462
0.2199956565
0.4942880384
0.7580995902
0.9539269290
1.0440754772
1.0106594628
0.8556018915
0.6052056562
0.3204652678
0.0522362411
-0.1649519805
-0.3122193609
-0.3863352707
-0.3994235896
-0.3679153795
-0.3123535229
-0.2512922833
-0.1972032898
-0.1564754998
-0.1294151995
-0.1113321257
-0.0987834983
-0.0893429139
-0.0810691649
-0.0725378604
-0.0628414262
-0.0515891047
-0.0389069549
-0.0251726135
-0.0101250174
0.0062838610
0.0240348973
0.0430712743
0.0633027404
0.0845991691
0.1067895012
0.1296617454
0.1529629777
0.1763997839
0.1997654010
0.2227015580
0.2447344902
0.2654337938
0.2844124260
0.3013267047
0.3158763092
0.3278042793
0.3368970161
0.3429842815
0.3459391985
0.3456782507
0.3421612832
0.3353165080
0.3251897886
0.3121376871
0.2965198531
0.2786907968
0.2589975629
0.2377760146
0.2153559137
0.1920618872
0.1682134279
0.1441248939
0.1201055092
0.0964593631
0.0734854788
0.0514780703
0.0307262499
0.0114387107
-0.0063540290
-0.0226500273
-0.0374586997
-0.0508008191
-0.0627085162
-0.0732252788
-0.0824059524
-0.0903167399
-0.0970352016
-0.1026502555
-0.1072621767
-0.1109825982
-0.1139345088
-0.1162507506
-0.1180711423
-0.1194860863
-0.1204706898
-0.1211063498
-0.1214548707
-0.1215508166
-0.1214015109
-0.1209870366
-0.1202602358
-0.1191467103
-0.1175448213
-0.1153256894
-0.1123331945
-0.1083839760
-0.1032674330
-0.0967457235
-0.0885537655
-0.0784003469
-0.0660411877
-0.0513740271
-0.0344186708
-0.0153176211
0.0056639235
0.0281380680
0.0515935645
0.0753943180
0.0987810970
0.1208719739
0.1406623246
0.1570248285
0.1689676779
0.1761177216
0.1781473974
0.1749628093
0.1667118451
0.1537843355
0.1368120551
0.1166687231
0.0943598585
0.0707914946
0.0469901986
0.0238137914
0.0019344539
-0.0181612724
-0.0361724861
-0.0519839252
-0.0650006046
-0.0750175746
-0.0864105329
-0.1024755699
-0.1249660961
-0.1540926837
-0.1885230196
-0.2253819057
-0.2606932787
-0.2828754752
-0.2681348580
-0.1999098609
-0.0706784702
0.1180417746
0.3556937816
0.6222665393
0.8687938813
1.0289553303
1.0631598945
0.9615274493
0.7445792812
0.4677970902
0.1885601788
-0.0520940373
-0.2295398656
-0.3337536362
-0.3738021641
-0.3642412671
-0.3207372091
-0.2600652582
-0.2001099484
-0.1540907009
-0.1212759637
-0.0990335057
-0.0845301349
-0.0747316980
-0.0664400126
-0.0578264706
-0.0485455342
-0.0382921509
-0.0268354258
-0.0140186220
0.0002408396
0.0159513801
0.0330676921
0.0516322043
0.0715370873
0.0926163839
0.1146814441
0.1375209252
0.1609007915
0.1845643147
0.2082320738
0.2316014755
0.2543449837
0.2761117091
0.2965280697
0.3151977908
0.3317019046
0.3456590324
0.3568781582
0.3651307589
0.3702429198
0.3721047698
0.3706704813
0.3659582708
0.3580503982
0.3470931672
0.3332969251
0.3169360630
0.2983490156
0.2779382613
0.2560837094
0.2330703920
0.2093314811
0.1852681065
0.1612417111
0.1375740505
0.1145473153
0.0924046577
0.0713497567
0.0515466043
0.0331195054
0.0161530775
0.0006922512
-0.0131860680
-0.0254616321
-0.0362528560
-0.0456744736
-0.0538364577
-0.0608440058
-0.0667975407
-0.0717927104
-0.0759203877
-0.0792666707
-0.0819128827
-0.0839355717
-0.0854065112
-0.0863926997
-0.0869563606
-0.0871549426
-0.0870411195
-0.0866627900
-0.0860627733
-0.0852574633
-0.0841422806
-0.0825714729
-0.0803894446
-0.0774307570
-0.0735201284
-0.0684724339
-0.0620927055
-0.0541761320
-0.0445080592
-0.0328639897
-0.0190095830
-0.0026451455
0.0163885674
0.0375657781
0.0602794915
0.0838947727
0.1077487469
0.1311505993
0.1533815755
0.1736949810
0.1913161815
0.2054426028
0.2152437307
0.2198600301
0.2186104106
0.2119558605
0.2006911374
0.1856019481
0.1674649480
0.1470477414
0.1251088814
0.1023978715
0.0796552963
0.0576129228
0.0369934912
0.0185106946
0.0029274376
-0.0103354117
-0.0226222844
-0.0353390914
-0.0499532234
-0.0679935506
-0.0910504232
-0.1207756709
-0.1601681828
-0.2066601807
-0.2365324596
-0.2299781627
-0.1737460152
-0.0611351096
0.1080018932
0.3272559907
0.5836617918
0.8455492531
1.0420801297
1.1210407938
1.0628142618
0.8803801939
0.6168614573
0.3312505529
0.0723999650
-0.1287452663
-0.2591598186
-0.3183485545
-0.3185212718
-0.2824762872
-0.2288329311
-0.1718567284
-0.1214593990
-0.0831988576
-0.0579421482
-0.0411848049
-0.0296858580
-0.0210692304
-0.0134396978
-0.0053807569
0.0040476673
0.0153092413
0.0283912225
0.0428044601
0.0582914009
0.0752112842
0.0935429922
0.1132239539
0.1341505689
0.1561782397
0.1791213712
0.2027533713
0.2268066504
0.2509726219
0.2749260603
0.2984248270
0.3210077112
0.3422137360
0.3616312980
0.3788981670
0.3937014868
0.4057777743
0.4149132093
0.4209462660
0.4237664871
0.4233128096
0.4195735437
0.4125547684
0.4022039394
0.3888589701
0.3729141264
0.3547520771
0.3347438938
0.3132490511
0.2906154264
0.2671792998
0.2432653545
0.2191866766
0.1952447549
0.1717294812
0.1489191500
0.1270804589
0.1064685083
0.0873207884
0.0697425295
0.0537203054
0.0392288221
0.0262344779
0.0146937854
0.0045539823
-0.0042458722
-0.0117748781
-0.0181102952
-0.0233375429
-0.0275502001
-0.0308500052
-0.0333468310
-0.0351585943
-0.0364113387
-0.0372350512
-0.0376345606
-0.0376463602
-0.0373352439
-0.0367378517
-0.0358626700
-0.0346900314
-0.0331721149
-0.0312329457
-0.0287683952
-0.0256461811
-0.0217058675
-0.0167588648
-0.0105884076
-0.0029492822
0.0064320908
0.0180823498
0.0326569975
0.0498078812
0.0691041655
0.0900887602
0.1122783215
0.1351632507
0.1582076952
0.1808495481
0.2025004482
0.2225457799
0.2403446735
0.2552300051
0.2665083962
0.2734602144
0.2753395728
0.2713852007
0.2617833375
0.2476269824
0.2298565871
0.2093772749
0.1870588405
0.1637358071
0.1402082694
0.1172417121
0.0955663115
0.0759617522
0.0597614760
0.0458911937
0.0327541901
0.0189191337
0.0031200646
-0.0157436788
-0.0386074139
-0.0662410752
-0.0992492138
-0.1379927699
-0.1733467218
-0.1840862971
-0.1533097189
-0.0697907226
0.0720214445
0.2720020233
0.5248327056
0.7977016191
1.0213804952
1.1450518809
1.1413198242
1.0062082307
0.7660656469
0.4827992570
0.2104304067
-0.0142514863
-0.1716889318
-0.2568478996
-0.2741345841
-0.2470374296
-0.1964507598
-0.1385806414
-0.0849448844
-0.0423730417
-0.0130064096
0.0057019730
0.0190053728
0.0292387403
0.0380090594
0.0465862908
0.0559019305
0.0665490102
0.0787820973
0.0925172944
0.1074294424
0.1236578912
0.1412523259
0.1601719992
0.1803351504
0.2016189052
0.2238592766
0.2468511640
0.2703483538
0.2940635191
0.3176895368
0.3410184747
0.3635977098
0.3849585203
0.4046810788
0.4223944526
0.4377766034
0.4505543874
0.4605035556
0.4674487532
0.4712635202
0.4718702911
0.4692403948
0.4633940548
0.4542962198
0.4420458376
0.4270532791
0.4097169655
0.3904183248
0.3695247449
0.3473897322
0.3243529108
0.3007400234
0.2768629304
0.2530196105
0.2294941607
0.2065567960
0.1844638494
0.1634577722
0.1437671340
0.1255894098
0.1089675162
0.0938664458
0.0802437461
0.0680499916
0.0572287837
0.0477167506
0.0394435474
0.0323318560
0.0262973852
0.0212488706
0.0170881812
0.0137137850
0.0110215140
0.0089004886
0.0072328560
0.0059189926
0.0049841188
0.0043742626
0.0040439643
0.0039764648
0.0041835831
0.0047057034
0.0056119084
0.0069999861
0.0089964303
0.0117564399
0.0154639197
0.0203314797
0.0266004355
0.0345408082
0.0444253258
0.0564218031
0.0707169984
0.0873751691
0.1063174689
0.1273218525
0.1500191776
0.1738918095
0.1982786287
0.2223754115
0.2452348300
0.2657664519
0.2829155386
0.2959921565
0.3044015359
0.3077728432
0.3059623661
0.2990535131
0.2873568141
0.2714099194
0.2519776008
0.2300517507
0.2068222798
0.1829260473
0.1593624772
0.1371478686
0.1169426503
0.0990513798
0.0834227438
0.0696495582
0.0569688301
0.0442651103
0.0301202077
0.0122856402
-0.0133557673
-0.0475723819
-0.0868749614
-0.1235166547
-0.1464018056
-0.1388074103
-0.0833655914
0.0302603198
0.2052469944
0.4389240133
0.7170353672
0.9696170736
1.1373231487
1.1852898951
1.1031359012
0.9049620420
0.6350608708
0.3526377562
0.1003496121
-0.0935276784
-0.2150888986
-0.2647995301
-0.2574981225
-0.2157164299
-0.1567702653
-0.0967653082
-0.0462786409
-0.0103170935
0.0116827560
0.0256669179
0.0362524212
0.0448893237
0.0530716425
0.0618604413
0.0718838309
0.0833369687
0.0960336180
0.1100438953
0.1254595343
0.1422849012
0.1604845548
0.1799832464
0.2006659195
0.2223777104
0.2449239474
0.2680752863
0.2916879790
0.3153979467
0.3387624155
0.3613663993
0.3828224139
0.4027704768
0.4208781071
0.4368403258
0.4503796556
0.4612461210
0.4692172562
0.4740981187
0.4757212712
0.4738107749
0.4681722489
0.4591528394
0.4471109415
0.4323972540
0.4153547787
0.3963188211
0.3756169896
0.3535691964
0.3304876566
0.3066768890
0.2824337155
0.2580472578
0.2337983776
0.2099590690
0.1867934834
0.1645580755
0.1435016035
0.1238651288
0.1058614686
0.0894945972
0.0746977340
0.0614072276
0.0495559414
0.0390732538
0.0298850581
0.0219137625
0.0150782903
0.0092940793
0.0044730827
0.0005237682
-0.0026488812
-0.0051433679
-0.0070616793
-0.0085092877
-0.0095951503
-0.0103758656
-0.0108550100
-0.0110457654
-0.0109372183
-0.0104945312
-0.0096589712
-0.0083479096
-0.0064548222
-0.0038492892
-0.0003769949
0.0041402717
0.0099045492
0.0171414759
0.0261005060
0.0370549891
0.0502964688
0.0659525837
0.0839008673
0.1038997755
0.1255930558
0.1485097473
0.1720641809
0.1955559790
0.2181700555
0.2389766162
0.2569311584
0.2709072414
0.2801934228
0.2844831425
0.2836499441
0.2777549598
0.2670469098
0.2519621029
0.2331244361
0.2113453949
0.1876240529
0.1631470723
0.1387333107
0.1149619488
0.0929512644
0.0733681898
0.0564167397
0.0418380115
0.0289101850
0.0164485228
0.0028053700
-0.0141298455
-0.0368658279
-0.0676328465
-0.1051391631
-0.1435379107
-0.1724264103
-0.1769110457
-0.1433885032
-0.0535594056
0.1028293069
0.3204444703
0.5783666966
0.8402487947
1.0532807600
1.1580339243
1.1251991964
0.9609514592
0.7066590428
0.4215512339
0.1554149298
-0.0574971752
-0.2001104472
-0.2722134765
-0.2818039980
-0.2494396484
-0.1960310959
-0.1376020495
-0.0852892598
-0.0453425186
-0.0187380343
-0.0014509278
0.0099140202
0.0180584589
0.0251009212
0.0325764932
0.0414368141
0.0520500765
0.0642010260
0.0772971076
0.0916682049
0.1074330351
0.1245768179
0.1430436039
0.1627362751
0.1835165441
0.2052049548
0.2275808819
0.2503825315
0.2733512533
0.2962523215
0.3186230623
0.3400170419
0.3600256948
0.3782783236
0.3944420991
0.4082220600
0.4193614675
0.4276427648
0.4328865680
0.4349513614
0.4337334974
0.4290900460
0.4208797717
0.4094422198
0.3951455599
0.3783500777
0.3594081118
0.3386640753
0.3164545022
0.2931080477
0.2689454889
0.2442797243
0.2194157738
0.1946507790
0.1702740032
0.1465668308
0.1238027683
0.1022474433
0.0821586051
0.0637227220
0.0469273440
0.0317262281
0.0180638967
0.0058789767
-0.0048946041
-0.0143276171
-0.0224955336
-0.0294785237
-0.0353614572
-0.0402339032
-0.0441901302
-0.0473291059
-0.0497544976
-0.0515746719
-0.0529026946
-0.0538563312
-0.0545466620
-0.0550007438
-0.0552125650
-0.0551593894
-0.0547993661
-0.0540715304
-0.0528958031
-0.0511729908
-0.0487847860
-0.0455937668
-0.0414421276
-0.0361469566
-0.0295044612
-0.0212917345
-0.0112667553
0.0008316120
0.0152851025
0.0322865653
0.0515266313
0.0725290035
0.0947532225
0.1175946595
0.1403846612
0.1623905570
0.1828156590
0.2007992620
0.2154166437
0.2256790642
0.2306662469
0.2302592003
0.2247339697
0.2144744543
0.1999720594
0.1818256966
0.1607417837
0.1375333083
0.1131157735
0.0885105322
0.0648208430
0.0423784479
0.0218293402
0.0037701985
-0.0117403660
-0.0251818091
-0.0375716538
-0.0504654903
-0.0659569760
-0.0866778355
-0.1172834605
-0.1640955623
-0.2109435135
-0.2410235697
-0.2406816432
-0.1994133033
-0.1098637762
0.0321720550
0.2277496505
0.4746714070
0.7449494468
0.9684269601
1.0914018204
1.0848011947
0.9442208048
0.7011273446
0.4182393553
0.1471683913
-0.0763620548
-0.2320976583
-0.3152722378
-0.3384427879
-0.3169259366
-0.2668398087
-0.2051042391
-0.1492385835
-0.1081400863
-0.0795567055
-0.0606656552
-0.0485137724
-0.0400175174
-0.0321809785
-0.0238963179
-0.0148418065
-0.0047365772
0.0066246031
0.0193713334
0.0335576184
0.0491620972
0.0661652078
0.0845640230
0.1042214039
0.1249730693
0.1466292223
0.1689745502
0.1917682245
0.2147439010
0.2376097197
0.2600483050
0.2817167654
0.3022466936
0.3212441668
0.3382897462
0.3529833262
0.3651072277
0.3743934536
0.3806234342
0.3836448640
0.3833717016
0.3797841696
0.3729287549
0.3629182083
0.3499314102
0.3342124602
0.3160712329
0.2958838642
0.2740209636
0.2507572491
0.2265348222
0.2017705011
0.1768430220
0.1520930392
0.1278231206
0.1042977417
0.0817432942
0.0603480879
0.0402623506
0.0215982279
0.0044297835
-0.0111349347
-0.0250159237
-0.0373375686
-0.0482233223
-0.0577905742
-0.0661506505
-0.0734088143
-0.0796642650
-0.0850100831
-0.0895327926
-0.0933125964
-0.0964236316
-0.0989339721
-0.1009056285
-0.1023945479
-0.1034506143
-0.1041176482
-0.1044334068
-0.1044295840
-0.1041318103
-0.1035596528
-0.1027612305
-0.1016425818
-0.0999069127
-0.0972788111
-0.0935089003
-0.0883738383
-0.0816763184
-0.0732450690
-0.0629348534
-0.0506264701
-0.0362267525
-0.0196685692
-0.0009107410
0.0202391699
0.0435359699
0.0677658194
0.0917992954
0.1146249535
0.1353493275
0.1531969295
0.1675102501
0.1777497582
0.1834938365
0.1844385798
0.1803979925
0.1713040577
0.1571752004
0.1386984190
0.1172164071
0.0939317919
0.0698816949
0.0459377324
0.0228060149
0.0010271475
-0.0190237705
-0.0371371449
-0.0532688874
-0.0675405387
-0.0798843960
-0.0902949293
-0.1044880054
-0.1264213151
-0.1570604620
-0.1943789628
-0.2333582468
-0.2659876563
-0.2831664010
-0.2655685912
-0.1923139386
-0.0544642857
0.1448783111
0.3905715814
0.6554655905
0.8930961956
1.0375827600
1.0500085376
0.9262930697
0.6966013020
0.4151699535
0.1383959092
-0.0937993042
-0.2597415743
-0.3528953873
-0.3783489311
-0.3583150715
-0.3123858381
-0.2562382219
-0.2016341746
-0.1564206093
-0.1245293998
-0.1041149108
-0.0904585235
-0.0808169848
-0.0729794441
-0.0652671508
-0.0565335641
-0.0461643530
-0.0340773963
-0.0207225767
-0.0063122358
0.0094878500
0.0266778453
0.0452167849
0.0650225737
0.0859719870
0.1079006704
0.1306031395
0.1538328434
0.1773031087
0.2006916002
0.2237741419
0.2461427207
0.2673266461
0.2869029250
0.3044962623
0.3197790603
0.3324714191
0.3423411367
0.3492037086
0.3529223280
0.3534078858
0.3506189707
0.3445586947
0.3351559481
0.3226391045
0.3073800336
0.2897436963
0.2700881451
0.2487645240
0.2261170685
0.2024831056
0.1781930537
0.1535704061
0.1289314342
0.1045852215
0.0808339331
0.0579728258
0.0362902476
0.0160356860
-0.0027186325
-0.0199631815
-0.0356997194
-0.0499414724
-0.0627131806
-0.0740510808
-0.0840028736
-0.0926277228
-0.0999962551
-0.1061905609
-0.1113041934
-0.1154421692
-0.1187209680
-0.1212685329
-0.1232242699
-0.1247075307
-0.1256917796
-0.1262517441
-0.1264579569
-0.1263551255
-0.1259621149
-0.1252704770
-0.1242443855
-0.1228206354
-0.1209086430
-0.1183904465
-0.1151207052
-0.1109267001
-0.1056083338
-0.0989381301
-0.0906612345
-0.0804954890
-0.0681798165
-0.0535905174
-0.0367287522
-0.0177180750
0.0031955677
0.0256438361
0.0491359974
0.0730589261
0.0966771034
0.1191326176
0.1394451643
0.1565121706
0.1692276875
0.1771448669
0.1799331368
0.1774595763
0.1698314181
0.1573960483
0.1407410065
0.1206939860
0.0982831682
0.0744114095
0.0501101825
0.0262886305
0.0036653652
-0.0172315294
-0.0360644961
-0.0526865053
-0.0669745319
-0.0778165906
-0.0889067608
-0.1039627082
-0.1251376373
-0.1530202912
-0.1866349522
-0.2234414411
-0.2601343430
-0.2898648512
-0.2855674424
-0.2267120767
-0.1038302464
0.0814850248
0.3165791813
0.5777361359
0.8291410726
1.0112224679
1.0716761078
0.9929162997
0.7927036425
0.5224370260
0.2398662814
-0.0107318569
-0.2010138036
-0.3194239722
-0.3697647187
-0.3631263699
-0.3214918496
-0.2641076944
-0.2054942839
-0.1554458412
-0.1190081869
-0.0951143485
-0.0796238686
-0.0691920823
-0.0611559836
-0.0535347298
-0.0450296413
-0.0350242020
-0.0235840587
-0.0112397902
0.0023359384
0.0172811054
0.0336134384
0.0513106127
0.0703101056
0.0905091828
0.1117648983
0.1338940941
0.1566734008
0.1798392386
0.2032008723
0.2264335294
0.2490729871
0.2706922907
0.2909017539
0.3093489587
0.3257186950
0.3397296593
0.3511327509
0.3597157178
0.3653035768
0.3677586126
0.3669803782
0.3628280004
0.3552342910
0.3445294681
0.3310573790
0.3151570816
0.2971628445
0.2774041466
0.2562056776
0.2338873379
0.2107642382
0.1871467002
0.1633402557
0.1396456476
0.1163588291
0.0937709640
0.0721684268
0.0518328026
0.0330040635
0.0157193148
-0.0000462305
-0.0143221333
-0.0271449801
-0.0385585587
-0.0486138580
-0.0573690683
-0.0648895810
-0.0712479889
-0.0765240860
-0.0808048676
-0.0841845769
-0.0867647712
-0.0886542253
-0.0899689159
-0.0908320205
-0.0913682980
-0.0916021257
-0.0915434250
-0.0912014276
-0.0905634580
-0.0895949333
-0.0882393633
-0.0864183505
-0.0840315900
-0.0809568698
-0.0770500760
-0.0721451974
-0.0660543169
-0.0585676098
-0.0494533444
-0.0384578815
-0.0253056745
-0.0097245285
0.0082722026
0.0284179133
0.0503454009
0.0735893490
0.0975863282
0.1216747952
0.1450950936
0.1669894535
0.1864019916
0.2022787109
0.2136184968
0.2200210208
0.2212791192
0.2173836639
0.2085320929
0.1951284103
0.1777831852
0.1573133098
0.1347417346
0.1111631914
0.0873207586
0.0642232180
0.0426509243
0.0230944396
0.0057545335
-0.0094578173
-0.0229214284
-0.0353048990
-0.0472075198
-0.0608317267
-0.0811629352
-0.1101713893
-0.1464297682
-0.1851131858
-0.2181583043
-0.2351128625
-0.2147858059
-0.1406080085
-0.0051477322
0.1898893727
0.4336602678
0.7038176546
0.9412919980
1.0858358297
1.1035698791
0.9872011326
0.7597774052
0.4803943756
0.2036643698
-0.0317102172
-0.2028133794
-0.3011030875
-0.3364493324
-0.3235295923
-0.2780478388
-0.2167345369
-0.1573256027
-0.1118478895
-0.0793109630
-0.0572267386
-0.0427917994
-0.0328873968
-0.0242161140
-0.0152600679
-0.0056436309
0.0049654177
0.0168106551
0.0300464075
0.0447367656
0.0608569203
0.0783814711
0.0973046489
0.1175240458
0.1389064190
0.1612878129
0.1844735588
0.2082382753
0.2323258754
0.2564496045
0.2802920130
0.3035049389
0.3257095071
0.3464961297
0.3654470485
0.3823108189
0.3967508909
0.4084536613
0.4171710915
0.4227207076
0.4249856002
0.4239144244
0.4195214006
0.4118869066
0.4011586291
0.3875501384
0.3713405693
0.3528746212
0.3325625581
0.3107629646
0.2877351450
0.2639160814
0.2397097495
0.2154813390
0.1915572531
0.1682251088
0.1457337366
0.1242931810
0.1040746998
0.0852107650
0.0677950617
0.0518824891
0.0375308397
0.0248225308
0.0136474395
0.0038864087
-0.0045739780
-0.0118413964
-0.0180181541
-0.0232020505
-0.0274853995
-0.0309547737
-0.0336910055
-0.0357691862
-0.0372586667
-0.0382230569
-0.0387202262
-0.0388023033
-0.0385156780
-0.0379010219
-0.0369932798
-0.0358216560
-0.0343962307
-0.0326052763
-0.0302786732
-0.0272409170
-0.0233112521
-0.0183036720
-0.0120269193
-0.0042844858
0.0051253880
0.0164097120
0.0297807476
0.0454583749
0.0636985584
0.0842238657
0.1065118701
0.1299912567
0.1540418224
0.1779944754
0.2011312358
0.2226852355
0.2418407176
0.2577330374
0.2694486614
0.2760261409
0.2769188198
0.2725118859
0.2633417831
0.2499953196
0.2331096681
0.2133723655
0.1915213130
0.1683447761
0.1446813849
0.1214201334
0.0995003802
0.0804917362
0.0652602884
0.0518727082
0.0385958090
0.0240106827
0.0070126992
-0.0131884936
-0.0370689696
-0.0647905246
-0.0962006764
-0.1308326647
-0.1665961033
-0.1857894734
-0.1661258449
-0.0931349328
0.0396681086
0.2307826852
0.4707227635
0.7401191188
0.9832869115
1.1371347155
1.1654412584
1.0595832534
0.8399800056
0.5625260251
0.2838556572
0.0442264438
-0.1325838469
-0.2322536900
-0.2636620036
-0.2493186349
-0.2080458304
-0.1549687962
-0.1015156974
-0.0554176587
-0.0207087640
0.0022739437
0.0178369474
0.0300503684
0.0401721206
0.0492791210
0.0582751311
0.0678907568
0.0786834488
0.0910375026
0.1051640580
0.1211010996
0.1387134567
0.1576928031
0.1776399148
0.1987066342
0.2207936358
0.2436808772
0.2671269077
0.2908683667
0.3146199834
0.3380745766
0.3609030549
0.3827544166
0.4032557497
0.4220122321
0.4386324450
0.4528562697
0.4643938055
0.4729995514
0.4784900174
0.4807437245
0.4797012047
0.4753650009
0.4677996669
0.4571317677
0.4435498790
0.4273045878
0.4087084916
0.3881361994
0.3660243307
0.3428417114
0.3188189914
0.2943190701
0.2697272992
0.2453878116
0.2216035217
0.1986361249
0.1767060984
0.1559927003
0.1366339703
0.1187267294
0.1023265800
0.0874479057
0.0740638715
0.0621477173
0.0517125282
0.0426358571
0.0347928662
0.0280658452
0.0223442112
0.0175245083
0.0135104083
0.0102127102
0.0075493402
0.0054453519
0.0038333033
0.0026554675
0.0018623320
0.0014115156
0.0012677643
0.0014029514
0.0017981328
0.0024934814
0.0035955804
0.0052307630
0.0075428904
0.0106932796
0.0148606076
0.0202410564
0.0270483361
0.0355136852
0.0458858706
0.0584312468
0.0734006701
0.0907633175
0.1103060420
0.1317118834
0.1545600682
0.1783260098
0.2023813080
0.2259930359
0.2483188804
0.2684100955
0.2852141071
0.2976171723
0.3050265617
0.3073446737
0.3046281741
0.2970825066
0.2850618932
0.2690693344
0.2497566084
0.2279242719
0.2045216597
0.1806468849
0.1574076546
0.1351141802
0.1146223932
0.0965160720
0.0808925824
0.0673628779
0.0550514991
0.0425965744
0.0281498195
0.0094990138
-0.0161924257
-0.0503244484
-0.0897495933
-0.1266391256
-0.1486250713
-0.1417944011
-0.0875492746
0.0263726818
0.2023593320
0.4329240294
0.7003326599
0.9527296464
1.1289657842
1.1889861622
1.1142539849
0.9143729298
0.6448570758
0.3621511071
0.1090099458
-0.0854877852
-0.2082853489
-0.2647189052
-0.2662128331
-0.2279577449
-0.1689104860
-0.1097815852
-0.0601938114
-0.0228966032
0.0020260692
0.0171635242
0.0275514774
0.0363904710
0.0447738967
0.0536124253
0.0635162947
0.0747953102
0.0874588445
0.1014372830
0.1168334100
0.1336595460
0.1518881517
0.1714518279
0.1922433157
0.2141154962
0.2368813909
0.2603141612
0.2841662133
0.3082716513
0.3322070212
0.3555173548
0.3777813856
0.3986142225
0.4176663329
0.4346216709
0.4491976451
0.4611451178
0.4702484058
0.4763252800
0.4792269655
0.4788381415
0.4749543634
0.4674922418
0.4568123256
0.4432778528
0.4272436196
0.4090559806
0.3890528485
0.3675636944
0.3449095477
0.3214029961
0.2973481857
0.2730408207
0.2487681637
0.2248090357
0.2014338158
0.1789044888
0.1574752460
0.1373923066
0.1188777812
0.1019728233
0.0866239348
0.0727751588
0.0603668811
0.0493358293
0.0396150736
0.0311340266
0.0238184430
0.0175904199
0.0123683968
0.0080671555
0.0045978200
0.0018678567
-0.0002189257
-0.0017623761
-0.0028660012
-0.0036363995
-0.0041191703
-0.0043059770
-0.0041844457
-0.0037210012
-0.0028610517
-0.0015317546
0.0003585563
0.0029226805
0.0062946186
0.0106295719
0.0161039428
0.0229153347
0.0312825519
0.0414455996
0.0536656839
0.0682136808
0.0851266537
0.1042407883
0.1252856784
0.1478651665
0.1714573441
0.1954145515
0.2189633779
0.2412046615
0.2611134892
0.2776317589
0.2900363514
0.2977153194
0.3002807796
0.2975835338
0.2897161142
0.2770124444
0.2600450659
0.2396250359
0.2168018503
0.1924431050
0.1674740328
0.1429761321
0.1197637732
0.0983841979
0.0791175197
0.0619767237
0.0467076665
0.0327890766
0.0194647271
0.0056994232
-0.0129075164
-0.0393232187
-0.0735529661
-0.1126401962
-0.1508084942
-0.1774288236
-0.1739690281
-0.1252246837
-0.0209751588
0.1440140518
0.3727272169
0.6478160049
0.9023751958
1.0823287309
1.1525312891
1.0967682875
0.9179331755
0.6545885163
0.3686849284
0.1071978619
-0.0984608941
-0.2324431899
-0.2944642715
-0.2989863428
-0.2624674699
-0.2053419083
-0.1449882195
-0.0929593183
-0.0549824731
-0.0309593052
-0.0154226563
-0.0044252498
0.0039762355
0.0115035378
0.0194085854
0.0284737017
0.0390095281
0.0508555888
0.0638875401
0.0783042085
0.0941275273
0.1113394997
0.1298821993
0.1496577699
0.1705284254
0.1923164499
0.2148041978
0.2377448496
0.2609593903
0.2840525333
0.3065883317
0.3281603952
0.3483918905
0.3669355414
0.3834736286
0.3977179896
0.4094100189
0.4183206680
0.4242503816
0.4270269871
0.4264524325
0.4221659666
0.4144171673
0.4035580611
0.3899332293
0.3738798076
0.3557274864
0.3357985104
0.3144076790
0.2918623476
0.2684624976
0.2445007659
0.2202623516
0.1960250084
0.1720590444
0.1486273224
0.1259852596
0.1043808277
0.0840545533
0.0652393431
0.0480761026
0.0325030510
0.0184323388
0.0057767033
-0.0055478212
-0.0156209030
-0.0245214169
-0.0323277147
-0.0391176250
-0.0449684534
-0.0499569825
-0.0541594717
-0.0576516577
-0.0605087536
-0.0628054499
-0.0646159139
-0.0660137897
-0.0670721986
-0.0678637385
-0.0684456311
-0.0687695476
-0.0687496637
-0.0682851567
-0.0672580568
-0.0655332462
-0.0629584600
-0.0593642854
-0.0545641624
-0.0483544329
-0.0405170949
-0.0308212423
-0.0190191747
-0.0048200689
0.0121704461
0.0315921010
0.0528858490
0.0754633458
0.0987069499
0.1219697222
0.1445754265
0.1658185058
0.1849640548
0.2012478642
0.2138764271
0.2220269395
0.2248472269
0.2216883562
0.2130963800
0.1999532102
0.1831104971
0.1633896291
0.1415817331
0.1184476739
0.0947180853
0.0710956565
0.0482567199
0.0268477213
0.0074848452
-0.0092337523
-0.0235580545
-0.0367900576
-0.0504033014
-0.0660102042
-0.0853620628
-0.1103490526
-0.1430002276
-0.1858948817
-0.2270448547
-0.2489470587
-0.2371945886
-0.1804767956
-0.0705792875
0.0976160715
0.3268523059
0.6022629786
0.8561123456
1.0310814682
1.0913798828
1.0227455756
0.8327617523
0.5644597395
0.2794436757
0.0239627321
-0.1724074757
-0.2967648875
-0.3526483461
-0.3501039594
-0.3096460355
-0.2523018339
-0.1936194394
-0.1436677353
-0.1070363353
-0.0828394892
-0.0665387406
-0.0551371567
-0.0464708914
-0.0388041729
-0.0308293038
-0.0216666608
-0.0108646947
0.0016000693
0.0153230318
0.0300779106
0.0461561881
0.0635364978
0.0821639636
0.1019441953
0.1227424024
0.1443833945
0.1666515812
0.1892909717
0.2120051756
0.2344581841
0.2563903607
0.2774238159
0.2971052431
0.3150302823
0.3308435204
0.3442384911
0.3549576751
0.3627924998
0.3675833394
0.3692195152
0.3676392951
0.3628298939
0.3547593840
0.3434435815
0.3292473252
0.3125461345
0.2937050124
0.2730751284
0.2509987695
0.2278101685
0.2038355041
0.1793929009
0.1547924293
0.1303361054
0.1063178915
0.0830236953
0.0607313707
0.0397106781
0.0201935423
0.0022328829
-0.0141874606
-0.0290921880
-0.0425144884
-0.0544960397
-0.0650870088
-0.0743460515
-0.0823403126
-0.0891454260
-0.0948455144
-0.0995331895
-0.1033095505
-0.1062834397
-0.1085702246
-0.1102934429
-0.1115851213
-0.1125435106
-0.1131566895
-0.1134669802
-0.1134984870
-0.1132512655
-0.1127013223
-0.1118006151
-0.1104770528
-0.1086344954
-0.1061527539
-0.1028875906
-0.0986707189
-0.0933098031
-0.0865884588
-0.0782662527
-0.0680787026
-0.0557372774
-0.0410148966
-0.0239636192
-0.0047794681
0.0162287860
0.0386398974
0.0619206807
0.0854253505
0.1083953727
0.1299594651
0.1491335965
0.1648209874
0.1761055408
0.1825644520
0.1838934923
0.1800161718
0.1710839567
0.1574766299
0.1398021188
0.1188962686
0.0958209666
0.0715264304
0.0469380322
0.0229715386
0.0003299231
-0.0204966346
-0.0392307484
-0.0558078257
-0.0703760673
-0.0819199371
-0.0925108929
-0.1074606503
-0.1297665478
-0.1600613177
-0.1966130863
-0.2353253738
-0.2697370943
-0.2918907219
-0.2814200702
-0.2181377922
-0.0924596737
0.0945849683
0.3313532855
0.5956298712
0.8445649221
1.0109125058
1.0517599153
0.9563066517
0.7454586466
0.4697679308
0.1880021447
-0.0570652266
-0.2401674028
-0.3480520813
-0.3834508809
-0.3701206169
-0.3284249918
-0.2746300712
-0.2209043306
-0.1753186550
-0.1418463385
-0.1203630853
-0.1066687145
-0.0960503147
-0.0871426009
-0.0788143699
-0.0701690320
-0.0605449690
-0.0495154890
-0.0368885051
-0.0227065234
-0.0072234479
0.0095916063
0.0277828016
0.0472748787
0.0679559945
0.0896777222
0.1122550514
0.1354663881
0.1590535544
0.1827219444
0.2061410259
0.2289438568
0.2507277088
0.2711929191
0.2899773784
0.3066609449
0.3208867742
0.3323613196
0.3408543314
0.3461988576
0.3482912436
0.3470911322
0.3426214634
0.3349684749
0.3242817017
0.3107608802
0.2945363683
0.2759758806
0.2555011565
0.2335142555
0.2103975568
0.1865137600
0.1622058845
0.1377972699
0.1135916274
0.0898732352
0.0669067647
0.0449372075
0.0241898754
0.0048780416
-0.0128992512
-0.0291544520
-0.0439101619
-0.0571975190
-0.0690561979
-0.0795344057
-0.0886887133
-0.0965839942
-0.1032936417
-0.1088995861
-0.1134922942
-0.1171707693
-0.1200425515
-0.1222237176
-0.1238388808
-0.1250207552
-0.1258101727
-0.1262207039
-0.1262996411
-0.1260700041
-0.1255318074
-0.1246610256
-0.1234090715
-0.1217027960
-0.1194444883
-0.1165118755
-0.1127581229
-0.1080118340
-0.1020770503
-0.0947332515
-0.0857353552
-0.0748137173
-0.0616766087
-0.0461544652
-0.0283211591
-0.0083731175
0.0133780309
0.0365054551
0.0604671223
0.0846057979
0.1081490449
0.1302092249
0.1497834971
0.1657560117
0.1772911695
0.1839693876
0.1855038771
0.1818357650
0.1731340930
0.1597958176
0.1424458101
0.1219368564
0.0993428565
0.0755895486
0.0516128666
0.0283044752
0.0063470357
-0.0137858266
-0.0318294683
-0.0477282213
-0.0616257402
-0.0714981630
-0.0809053140
-0.0954963158
-0.1182882874
-0.1496663441
-0.1873835973
-0.2265611549
-0.2596881208
-0.2771986687
-0.2643360188
-0.1993518748
-0.0709705925
0.1199843219
0.3605902114
0.6259059751
0.8723930187
1.0336492406
1.0675736132
0.9651805624
0.7502672655
0.4733702307
0.1922930897
-0.0505128403
-0.2303739391
-0.3382592833
-0.3750394644
-0.3623381436
-0.3205188075
-0.2659236839
-0.2108737417
-0.1636686906
-0.1285869816
-0.1056777769
-0.0897906891
-0.0780773231
-0.0688723665
-0.0607744326
-0.0526460642
-0.0436137340
-0.0330678438
-0.0206627253
-0.0063166395
0.0097882229
0.0272057416
0.0456411845
0.0654084044
0.0863858043
0.1084103872
0.1312898913
0.1548027902
0.1786982927
0.2026963430
0.2264876206
0.2497335403
0.2720662523
0.2930886419
0.3123947949
0.3297230724
0.3447256287
0.3570771580
0.3665168004
0.3728500488
0.3759487662
0.3757511857
0.3722619106
0.3655519144
0.3557585407
0.3430855032
0.3278028857
0.3102471422
0.2907488789
0.2695586850
0.2471104026
0.2238172154
0.2000588899
0.1761817750
0.1524988023
0.1292894857
0.1067999219
0.0852427901
0.0647973520
0.0456094518
0.0277919485
0.0115323712
-0.0031356797
-0.0163103002
-0.0280863666
-0.0385555827
-0.0478064793
-0.0559244145
-0.0629915733
-0.0690869684
-0.0742864391
-0.0786626522
-0.0822851018
-0.0852200365
-0.0875301321
-0.0892747540
-0.0905100950
-0.0912891747
-0.0916618401
-0.0916747652
-0.0913714515
-0.0907922273
-0.0899574427
-0.0887446918
-0.0869640575
-0.0844244579
-0.0809345956
-0.0763100450
-0.0703705805
-0.0629351968
-0.0538220205
-0.0428483110
-0.0298304598
-0.0145839904
0.0031038923
0.0234818910
0.0459750464
0.0698403764
0.0943368134
0.1187252037
0.1422683077
0.1642307999
0.1838792691
0.2004822179
0.2133100633
0.2216351362
0.2247316816
0.2218919212
0.2133985383
0.2002378929
0.1833484179
0.1636129418
0.1418663582
0.1188933789
0.0954226476
0.0721266040
0.0496214836
0.0284673177
0.0091679336
-0.0078290457
-0.0221578709
-0.0350013577
-0.0482484449
-0.0637387678
-0.0832630991
-0.1085631217
-0.1413311579
-0.1827989968
-0.2220507790
-0.2434131253
-0.2330930807
-0.1791808177
-0.0716496370
0.0976440330
0.3377865894
0.6104604501
0.8558672823
1.0277650449
1.0935252921
1.0341389047
0.8472581583
0.5803899058
0.2960283624
0.0400554060
-0.1580843709
-0.2853836609
-0.3442765935
-0.3429934718
-0.3034411923
-0.2461600230
-0.1865240482
-0.1347411683
-0.0958531002
-0.0697353766
-0.0519158103
-0.0389761958
-0.0288433006
-0.0198371932
-0.0106733029
-0.0004624191
0.0112893080
0.0246806013
0.0394192855
0.0552050116
0.0723240933
0.0907737443
0.1105031045
0.1314213917
0.1533979013
0.1762620065
0.1998031582
0.2237708850
0.2478747934
0.2717851799
0.2952577973
0.3179210757
0.3393111911
0.3590133719
0.3766619000
0.3919401102
0.4045803902
0.4143641811
0.4211219768
0.4247333242
0.4251268233
0.4222801273
0.4162188965
0.4068727074
0.3944440688
0.3793227785
0.3618873904
0.3425052149
0.3215323188
0.2993135249
0.2761824127
0.2524613176
0.2284613318
0.2044823034
0.1808128370
0.1577302936
0.1355007904
0.1143792008
0.0946090108
0.0763605968
0.0596429238
0.0444344125
0.0307052296
0.0184172878
0.0075242454
-0.0020284932
-0.0103037779
-0.0173726941
-0.0233140660
-0.0282144012
-0.0321684313
-0.0352791426
-0.0376577750
-0.0394238230
-0.0407050350
-0.0415865661
-0.0420474764
-0.0421577233
-0.0419673025
-0.0414988217
-0.0407475942
-0.0396816669
-0.0382417046
-0.0363409816
-0.0338653817
-0.0306733980
-0.0265961333
-0.0214372997
-0.0149732189
-0.0069528220
0.0029023503
0.0153506737
0.0307397793
0.0486211382
0.0685262267
0.0899682109
0.1124420143
0.1354243178
0.1583735597
0.1807299356
0.2019153985
0.2213336588
0.2383701843
0.2523922001
0.2627486886
0.2687703899
0.2697698011
0.2650441095
0.2547326003
0.2399815643
0.2217574475
0.2009789263
0.1785169075
0.1551945281
0.1317871555
0.1090223873
0.0875800513
0.0681283909
0.0522767259
0.0390023373
0.0263068107
0.0125128281
-0.0037358320
-0.0234742952
-0.0474165905
-0.0759556506
-0.1091633122
-0.1469489487
-0.1844072362
-0.1982373200
-0.1684323022
-0.0829455147
0.0623095330
0.2634591600
0.5086695150
0.7761964690
1.0091479904
1.1447952022
1.1500697140
1.0224827709
0.7897917763
0.5078211496
0.2318960724
0.0002842097
-0.1660719104
-0.2587497132
-0.2857298165
-0.2681299880
-0.2240517721
-0.1683981167
-0.1128733722
-0.0659832927
-0.0329724736
-0.0120530092
0.0016505261
0.0113620123
0.0195465882
0.0279106520
0.0374018607
0.0482091308
0.0600055900
0.0730773289
0.0875317819
0.1033996972
0.1206750293
0.1393149384
0.1592397907
0.1803331590
0.2024418629
0.2253814669
0.2490331201
0.2730692987
0.2970907293
0.3207141193
0.3435721578
0.3653135151
0.3856028428
0.4041207739
0.4205639227
0.4346448848
0.4460923381
0.4546512655
0.4600826963
0.4619643152
0.4601520928
0.4549287092
0.4465783007
0.4353856242
0.4216360569
0.4056155964
0.3876108606
0.3679090880
0.3467981367
0.3245664049
0.3015027599
0.2778966725
0.2540382340
0.2302181559
0.2067277705
0.1838590301
0.1619045075
0.1411573961
0.1219114911
0.1043097934
0.0882774988
0.0737705294
0.0607395761
0.0491300987
0.0388823263
0.0299312567
0.0222066567
0.0156330622
0.0101297780
0.0056108779
0.0019852045
-0.0008436302
-0.0029772457
-0.0045224914
-0.0055913318
-0.0063002145
-0.0066778216
-0.0067293414
-0.0064872593
-0.0059581697
-0.0051227760
-0.0039358910
-0.0023264365
-0.0001974435
0.0025739481
0.0061364890
0.0106647242
0.0163585825
0.0234437176
0.0321716740
0.0428198871
0.0558026310
0.0715643981
0.0897730351
0.1099994766
0.1317759189
0.1545958201
0.1779138997
0.2011461384
0.2236696524
0.2448225217
0.2639040451
0.2801747829
0.2928565571
0.3011324513
0.3041468108
0.3010006186
0.2918967763
0.2780482591
0.2605863758
0.2405361706
0.2188164229
0.1962396474
0.1735120940
0.1512337478
0.1298983295
0.1098932946
0.0914998343
0.0748928747
0.0601410775
0.0472690918
0.0362455661
0.0227958383
0.0032836185
-0.0237713150
-0.0576923104
-0.0956469259
-0.1330500279
-0.1598121247
-0.1544245547
-0.1005775877
0.0108116674
0.1815992625
0.4064144101
0.6715688576
0.9293364896
1.1163263192
1.1899986217
1.1298761380
0.9417193573
0.6772498082
0.3942837788
0.1370517660
-0.0638579216
-0.1934833271
-0.2558916214
-0.2619574936
-0.2264742911
-0.1681540199
-0.1080550887
-0.0569387011
-0.0179957896
0.0083489968
0.0244305102
0.0352036718
0.0442202290
0.0526166038
0.0613455473
0.0710546778
0.0820864801
0.0944783061
0.1081422978
0.1231887292
0.1396370954
0.1574661330
0.1766147495
0.1969820230
0.2184272028
0.2407697091
0.2637891328
0.2872354380
0.3109500735
0.3345344760
0.3575332488
0.3795251137
0.4001249859
0.4189816311
0.4357770476
0.4502264663
0.4620783508
0.4711143972
0.4771495343
0.4800319235
0.4796429587
0.4757926411
0.4683530847
0.4576761505
0.4441265639
0.4280606453
0.4098263673
0.3897633562
0.3682028924
0.3454679098
0.3218729966
0.2977243943
0.2733199986
0.2489493590
0.2248936786
0.2014258146
0.1788095698
0.1572977329
0.1371341186
0.1185458393
0.1015970156
0.0862312869
0.0723887583
0.0600060239
0.0490161666
0.0393487584
0.0309298604
0.0236820228
0.0175242845
0.0123721738
0.0081377076
0.0047293922
0.0020522227
0.0000076833
-0.0015062529
-0.0025951235
-0.0033679775
-0.0038989234
-0.0041829272
-0.0042085584
-0.0039442382
-0.0033376590
-0.0023143559
-0.0007790788
0.0013837113
0.0043098428
0.0081554331
0.0130968889
0.0193309059
0.0270744690
0.0365648523
0.0480596190
0.0618361832
0.0780090443
0.0964203991
0.1168209610
0.1388333598
0.1619521470
0.1855437963
0.2088467034
0.2309711859
0.2508994833
0.2676069840
0.2803556702
0.2884795869
0.2915525791
0.2893968493
0.2820823721
0.2699274126
0.2534987483
0.2336116689
0.2112589234
0.1872157429
0.1626034318
0.1384165053
0.1154196290
0.0941476192
0.0749054426
0.0577682165
0.0425812088
0.0289598376
0.0165022415
0.0032698950
-0.0148232894
-0.0400285684
-0.0725276313
-0.1104325998
-0.1496780046
-0.1777579314
-0.1774356243
-0.1345539964
-0.0382211800
0.1191894834
0.3453397621
0.6124942761
0.8647513940
1.0554251285
1.1475264559
1.1137633167
0.9429129570
0.6834030550
0.3986700153
0.1361342606
-0.0728450496
-0.2129700713
-0.2809825016
-0.2875085437
-0.2554672233
-0.2038103093
-0.1471965546
-0.0959916965
-0.0562684563
-0.0297505716
-0.0129096312
-0.0017779776
0.0064195477
0.0137813431
0.0217291956
0.0310081701
0.0416865415
0.0533970067
0.0664115152
0.0808236467
0.0966502231
0.1138693900
0.1324206167
0.1522046961
0.1730837450
0.1948812035
0.2173850703
0.2404409062
0.2637088281
0.2867748023
0.3092442388
0.3307419917
0.3509123590
0.3694190826
0.3859453484
0.4001937860
0.4118864693
0.4207649159
0.4265901199
0.4290855544
0.4278144526
0.4229675294
0.4148398717
0.4037262911
0.3899213242
0.3737192323
0.3554140014
0.3352993425
0.3136686913
0.2908152082
0.2670317787
0.2426113066
0.2178473182
0.1930332354
0.1684622052
0.1444270989
0.1212205131
0.0991347688
0.0784619120
0.0594467475
0.0420641574
0.0262534317
0.0119569460
-0.0008864242
-0.0123426449
-0.0224817165
-0.0313769495
-0.0391049605
-0.0457456719
-0.0513823122
-0.0561014157
-0.0599928227
-0.0631496793
-0.0656684378
-0.0676488562
-0.0691939985
-0.0704102347
-0.0714150705
-0.0722563128
-0.0728674624
-0.0731675373
-0.0730647000
-0.0724562580
-0.0712286630
-0.0692575116
-0.0664075451
-0.0625326493
-0.0574758546
-0.0510690305
-0.0431304344
-0.0334660081
-0.0218708246
-0.0081291015
0.0079857988
0.0265845822
0.0472630155
0.0694509531
0.0925183471
0.1157749750
0.1384704393
0.1597941677
0.1788750598
0.1947800780
0.2065161046
0.2132907853
0.2149200849
0.2114429872
0.2030654427
0.1901603692
0.1732676511
0.1530941398
0.1305136538
0.1065669785
0.0824107613
0.0585716034
0.0359971422
0.0155227793
-0.0024445073
-0.0179261634
-0.0313720583
-0.0436604851
-0.0560981605
-0.0704202248
-0.0886679548
-0.1142211279
-0.1480396498
-0.1866331832
-0.2220591299
-0.2419226306
-0.2310318130
-0.1760750587
-0.0583404303
0.1266967396
0.3669376092
0.6336598272
0.8815182604
1.0525193033
1.1015420326
1.0140539189
0.8073340182
0.5304721616
0.2487458625
0.0024338100
-0.1829473716
-0.2965364480
-0.3421330449
-0.3328573898
-0.2885413282
-0.2301004351
-0.1726268019
-0.1253880758
-0.0918272414
-0.0692025637
-0.0535851445
-0.0427521475
-0.0347913722
-0.0280995429
-0.0213823092
-0.0136542452
-0.0042388504
0.0072314511
0.0208153101
0.0362624523
0.0530135421
0.0705850985
0.0894360702
0.1094726687
0.1305242825
0.1523902777
0.1748399981
0.1976127654
0.2204178788
0.2429346155
0.2648122302
0.2856699553
0.3050970012
0.3227218429
0.3382674662
0.3513590041
0.3616824556
0.3689915677
0.3731078365
0.3739205061
0.3713865694
0.3655307676
0.3564455906
0.3442912766
0.3292958126
0.3117550611
0.2920345834
0.2704121311
0.2472218491
0.2229156336
0.1979111392
0.1725917787
0.1473067231
0.1223709015
0.0980650012
0.0746354679
0.0522945054
0.0312200756
0.0115558213
-0.0065799652
-0.0229751118
-0.0376612943
-0.0507520548
-0.0623563099
-0.0725783515
-0.0815178458
-0.0892698341
-0.0959247325
-0.1015683316
-0.1062817971
-0.1101418173
-0.1132233017
-0.1155991042
-0.1173375458
-0.1185023220
-0.1191525036
-0.1193425357
-0.1191222385
-0.1185368070
-0.1176268107
-0.1164281943
-0.1149779102
-0.1132728481
-0.1110670424
-0.1080926594
-0.1041038126
-0.0988765624
-0.0922089165
-0.0839208292
-0.0738542022
-0.0618728842
-0.0478626706
-0.0317313043
-0.0134084749
0.0072471366
0.0302629587
0.0545803134
0.0791200878
0.1028980022
0.1250244744
0.1447046201
0.1612382528
0.1740198837
0.1825387218
0.1863786738
0.1852183442
0.1788310353
0.1671138051
0.1507428533
0.1309211800
0.1087502293
0.0852156150
0.0611870905
0.0374185491
0.0145480239
-0.0069023122
-0.0265261465
-0.0440330265
-0.0591786511
-0.0715254880
-0.0836737806
-0.0983827202
-0.1176420430
-0.1426697587
-0.1739120251
-0.2110431980
-0.2527511412
-0.2824786957
-0.2805698956
-0.2327457568
-0.1301042773
0.0308795629
0.2483538021
0.5111975305
0.7704239183
0.9673074852
1.0562712523
1.0059965993
0.8271415703
0.5698676195
0.2854412181
0.0238881628
-0.1789253100
-0.3134555149
-0.3799658862
-0.3868546720
-0.3506538016
-0.2941484120
-0.2342787680
-0.1815701963
-0.1418482986
-0.1162151600
-0.1010493492
-0.0899933888
-0.0810775876
-0.0729012673
-0.0643799776
-0.0547956249
-0.0437964724
-0.0313971899
-0.0177428380
-0.0026828143
0.0138079610
0.0317114475
0.0509685524
0.0714791309
0.0931019858
0.1156548676
0.1389144747
0.1626164531
0.1864553599
0.2101988500
0.2334966153
0.2558639319
0.2768611787
0.2960938416
0.3132125135
0.3279128942
0.3399357904
0.3490671160
0.3551378917
0.3580242452
0.3576474113
0.3539737316
0.3469303222
0.3365873909
0.3233032577
0.3074348161
0.2893329803
0.2693426853
0.2478028869
0.2250465618
0.2014007073
0.1771863418
0.1527185042
0.1283062990
0.1042554181
0.0808694944
0.0584465119
0.0372772084
0.0175470360
-0.0007173949
-0.0175105435
-0.0328379199
-0.0467160855
-0.0591726530
-0.0702462858
-0.0799866989
-0.0884546582
-0.0957220015
-0.1018716780
-0.1069976993
-0.1112051277
-0.1146100770
-0.1173397118
-0.1195322482
-0.1212630446
-0.1225124272
-0.1233587805
-0.1238568451
-0.1240342078
-0.1238933417
-0.1234130543
-0.1225453148
-0.1212149119
-0.1193194543
-0.1167293705
-0.1132879087
-0.1088111371
-0.1030879435
-0.0958800355
-0.0869219408
-0.0759240747
-0.0626690583
-0.0470881221
-0.0292343811
-0.0092844551
0.0124615316
0.0355799495
0.0595236650
0.0836220392
0.1070809289
0.1289826859
0.1482861573
0.1638319142
0.1748460165
0.1809417469
0.1818401765
0.1775062520
0.1681485692
0.1542193728
0.1364145566
0.1156736634
0.0929615098
0.0692354930
0.0454974760
0.0225627993
0.0010601481
-0.0185684473
-0.0360676184
-0.0513686840
-0.0635583678
-0.0736682347
-0.0860218870
-0.1035215146
-0.1275594060
-0.1580179489
-0.1932696299
-0.2301770343
-0.2664238650
-0.2851428934
-0.2594250576
-0.1733130200
-0.0221232963
0.1875540717
0.4378555161
0.6996439432
0.9284785990
1.0619363815
1.0622908615
0.9268268586
0.6877905841
0.4055989717
0.1321954696
-0.0952033216
-0.2554798586
-0.3438102560
-0.3681932676
-0.3439242437
-0.2932144442
-0.2336722983
-0.1779173180
-0.1335800981
-0.1030433428
-0.0830438332
-0.0698975284
-0.0606412468
-0.0529383082
-0.0450816280
-0.0359942414
-0.0252293035
-0.0129700893
0.0001977672
0.0146253581
0.0304395833
0.0476404587
0.0661873976
0.0859992107
0.1069541060
0.1288897067
0.1516031748
0.1748511369
0.1983496173
0.2218647083
0.2450902495
0.2675539947
0.2888230882
0.3085055761
0.3262504068
0.3417474303
0.3547273967
0.3649608924
0.3722565744
0.3764635367
0.3774717750
0.3752121874
0.3695571129
0.3605269827
0.3484736454
0.3337485790
0.3166975479
0.2976606032
0.2769720825
0.2549606099
0.2319490961
0.2082547381
0.1841890198
0.1600577112
0.1361608693
0.1127928373
0.0902422451
0.0687920090
0.0487172880
0.0301740656
0.0131557373
-0.0023614209
-0.0164082901
-0.0290218558
-0.0402464965
-0.0501342778
-0.0587449523
-0.0661459596
-0.0724124263
-0.0776271661
-0.0818806797
-0.0852711546
-0.0879044655
-0.0898941741
-0.0913615292
-0.0924354689
-0.0931881429
-0.0936107703
-0.0937325221
-0.0935598820
-0.0930760627
-0.0922410056
-0.0909913813
-0.0892405889
-0.0868787565
-0.0837727412
-0.0797661287
-0.0746793966
-0.0683102976
-0.0604334279
-0.0508001125
-0.0391384054
-0.0251601138
-0.0087614660
0.0099185544
0.0306265585
0.0529934938
0.0765346434
0.1006496264
0.1246223981
0.1476212493
0.1686988073
0.1867920348
0.2008616790
0.2103575731
0.2148639280
0.2141872471
0.2083675995
0.1976786208
0.1826275124
0.1639550420
0.1426355430
0.1197012057
0.0959967022
0.0725547952
0.0501944817
0.0295029178
0.0108354191
-0.0056845396
-0.0201653243
-0.0329471417
-0.0440063183
-0.0557239644
-0.0725746649
-0.0968292952
-0.1284778750
-0.1652297263
-0.2025941880
-0.2331391981
-0.2366879500
-0.1953199337
-0.0980970251
0.0589365134
0.2727540334
0.5327565152
0.7976021003
1.0041850578
1.1059999321
1.0751442432
0.9096511091
0.6581785537
0.3762761321
0.1102153191
-0.1032264749
-0.2463874348
-0.3222501851
-0.3394503285
-0.3111339844
-0.2549577890
-0.1927350731
-0.1391484378
-0.0972718113
-0.0676950227
-0.0488725312
-0.0371234258
-0.0275688689
-0.0186435371
-0.0095709639
0.0002713038
0.0112987442
0.0237198610
0.0375361829
0.0526699496
0.0691978137
0.0871148879
0.1063752310
0.1268929794
0.1485423468
0.1711576243
0.1945331804
0.2184234610
0.2425429894
0.2665663663
0.2901621437
0.3130842017
0.3348705608
0.3550746495
0.3733035024
0.3892174058
0.4025298578
0.4130075690
0.4204704618
0.4247916704
0.4258975416
0.4237676337
0.4184347174
0.4099712716
0.3983646718
0.3839313229
0.3670755379
0.3481871468
0.3276414979
0.3057994567
0.2830074068
0.2595972496
0.2358864041
0.2121778072
0.1887599134
0.1659066952
0.1438776426
0.1229177637
0.1032575841
0.0850928337
0.0684656158
0.0533516296
0.0397185903
0.0275263537
0.0167269162
0.0072644147
-0.0009248734
-0.0079125300
-0.0137779966
-0.0186083361
-0.0224970072
-0.0255447719
-0.0278602505
-0.0295599227
-0.0307681277
-0.0315933433
-0.0320144839
-0.0320889102
-0.0318687909
-0.0313788032
-0.0306161322
-0.0295504715
-0.0281240227
-0.0262516508
-0.0238211589
-0.0206929320
-0.0166998635
-0.0116473547
-0.0053133153
0.0025518369
0.0122251760
0.0243536742
0.0394691302
0.0571306731
0.0768617133
0.0981676961
0.1205364790
0.1434386108
0.1663273320
0.1886385756
0.2097909665
0.2291858218
0.2462071505
0.2602216541
0.2705787258
0.2766104511
0.2776316077
0.2729414870
0.2626413832
0.2478772063
0.2296267551
0.2088175330
0.1863267488
0.1629813158
0.1395578525
0.1167826822
0.0953318331
0.0758385488
0.0600993109
0.0472846680
0.0350191805
0.0213858152
0.0049256673
-0.0153620413
-0.0400199619
-0.0691326189
-0.1023264102
-0.1387807850
-0.1743081470
-0.1872961007
-0.1572671474
-0.0717278070
0.0738313812
0.2759359146
0.5231275201
0.7922419411
1.0221078380
1.1531490256
1.1542468501
1.0229461275
0.7868933707
0.5048370424
0.2306683970
0.0015505799
-0.1619847730
-0.2491557284
-0.2731109658
-0.2544126478
-0.2104926766
-0.1556526943
-0.1010640828
-0.0547679639
-0.0216751989
-0.0009320543
0.0128291092
0.0226478452
0.0308836500
0.0392216699
0.0486727003
0.0595731865
0.0716079401
0.0847692820
0.0992863325
0.1151901331
0.1324737931
0.1510924903
0.1709634707
0.1919660482
0.2139416055
0.2366939046
0.2600605445
0.2838179386
0.3075480453
0.3308497510
0.3533429365
0.3746684768
0.3944882417
0.4124850952
0.4283628958
0.4418464963
0.4526817442
0.4606354811
0.4654955433
0.4669972602
0.4647281247
0.4589372146
0.4499600312
0.4381268058
0.4237625003
0.4071868068
0.3887141477
0.3686536760
0.3473092745
0.3249795569
0.3019574920
0.2785262766
0.2549608633
0.2315308822
0.2085006938
0.1861293890
0.1646707887
0.1443734446
0.1254806382
0.1082202706
0.0926116666
0.0785733294
0.0660367276
0.0549302005
0.0451789579
0.0367050804
0.0294275189
0.0232620950
0.0181215009
0.0139152996
0.0105499242
0.0079286788
0.0059517381
0.0045161470
0.0035158214
0.0028418565
0.0024160505
0.0022416169
0.0023058601
0.0026172874
0.0032079845
0.0041336161
0.0054734251
0.0073302332
0.0098304406
0.0131240261
0.0173845471
0.0228091395
0.0296185180
0.0380569708
0.0483923007
0.0609159851
0.0758737675
0.0931908980
0.1126286282
0.1338499457
0.1564195743
0.1798039740
0.2033713409
0.2263916072
0.2480362647
0.2673756489
0.2833794705
0.2949400182
0.3014071101
0.3027399703
0.2990544369
0.2906011208
0.2777654066
0.2610674516
0.2411621867
0.2188393157
0.1950233157
0.1707734371
0.1472436575
0.1247581239
0.1040488650
0.0857835244
0.0701042097
0.0566274923
0.0444444073
0.0321204539
0.0176955948
-0.0013023541
-0.0273680707
-0.0613901222
-0.1001391616
-0.1358609337
-0.1562777483
-0.1464378184
-0.0910023399
0.0259778238
0.2074824483
0.4427116570
0.7071162949
0.9611654227
1.1390349414
1.1935348265
1.1106421505
0.9095010851
0.6384433633
0.3544265966
0.1029666076
-0.0877685411
-0.2069885091
-0.2575273237
-0.2511279849
-0.2105738632
-0.1546082005
-0.0973047190
-0.0480676935
-0.0116335497
0.0124129967
0.0285563419
0.0396759718
0.0480634408
0.0555500126
0.0635066603
0.0728440665
0.0840126232
0.0970024318
0.1113433031
0.1266555173
0.1433490461
0.1614102447
0.1807755202
0.2013406295
0.2229606788
0.2454501240
0.2685827704
0.2920917730
0.3156696363
0.3390820294
0.3620014526
0.3839353178
0.4044382467
0.4231146908
0.4396191891
0.4536540416
0.4649691796
0.4733621659
0.4786781945
0.4808100909
0.4796983120
0.4753309461
0.4677321743
0.4568224340
0.4428912452
0.4263445656
0.4075746968
0.3869602772
0.3648662781
0.3416440131
0.3176311395
0.2931516581
0.2685159130
0.2440205920
0.2199487264
0.1965696908
0.1741392035
0.1528992785
0.1330765896
0.1148411786
0.0981981394
0.0831095374
0.0695310625
0.0574120286
0.0466953739
0.0373176606
0.0292090754
0.0222934290
0.0164881562
0.0117043163
0.0078465926
0.0048132927
0.0024963481
0.0007813149
-0.0004526268
-0.0013128117
-0.0017832986
-0.0019123163
-0.0017424823
-0.0012887986
-0.0005386512
0.0005481893
0.0020395624
0.0040306805
0.0066440368
0.0100297156
0.0143654166
0.0198564555
0.0267357633
0.0352638869
0.0457455460
0.0589282319
0.0748123305
0.0929959708
0.1130452947
0.1344944565
0.1568456229
0.1795689295
0.2021024088
0.2238520871
0.2441920031
0.2624642083
0.2779787665
0.2900137541
0.2978152601
0.3005973860
0.2975546540
0.2887780417
0.2752435309
0.2578280038
0.2373917919
0.2147784536
0.1908147736
0.1663107631
0.1420596599
0.1188379283
0.0974324273
0.0790400436
0.0630979642
0.0483955576
0.0337406325
0.0179594382
-0.0001033359
-0.0215845597
-0.0476026631
-0.0792576354
-0.1176560739
-0.1583124435
-0.1819760673
-0.1710501071
-0.1126821201
0.0012359408
0.1740677130
0.4048630723
0.6796167557
0.9317636450
1.1024871034
1.1558494819
1.0787921193
0.8815458943
0.6098513032
0.3250283169
0.0725899079
-0.1189600325
-0.2381266934
-0.2893721074
-0.2828240614
-0.2407858760
-0.1836097423
-0.1262268103
-0.0781472605
-0.0434603039
-0.0208450003
-0.0057079931
0.0048488751
0.0129604758
0.0203251235
0.0282045702
0.0374234293
0.0483686485
0.0609904944
0.0748242761
0.0898724641
0.1063286308
0.1241651040
0.1433129586
0.1636620158
0.1850608437
0.2073167574
0.2301958183
0.2534228349
0.2766816127
0.2997375509
0.3222204955
0.3436486708
0.3635866365
0.3816452868
0.3974818516
0.4107998954
0.4213493181
0.4289263545
0.4333735744
0.4345798941
0.4324824670
0.4270688293
0.4182478463
0.4061367238
0.3911299769
0.3736124097
0.3539584246
0.3325320226
0.3096868025
0.2857659617
0.2611022957
0.2360181983
0.2108256614
0.1858262755
0.1613111917
0.1375608942
0.1148453510
0.0934241277
0.0735330314
0.0552490443
0.0385506370
0.0234080288
0.0097842707
-0.0023647542
-0.0130903384
-0.0224531268
-0.0305261330
-0.0373902956
-0.0431337215
-0.0478516856
-0.0516466307
-0.0546281680
-0.0569130765
-0.0586253033
-0.0598959637
-0.0607972728
-0.0613261679
-0.0615339574
-0.0614471111
-0.0610662058
-0.0603659258
-0.0592950620
-0.0577765129
-0.0557072838
-0.0529584871
-0.0493753426
-0.0447771769
-0.0389574238
-0.0316836244
-0.0226974239
-0.0117130512
0.0015309616
0.0170814964
0.0348530763
0.0546365050
0.0760981591
0.0987799881
0.1220995141
0.1453498323
0.1676996105
0.1881930895
0.2057500827
0.2192993815
0.2282810061
0.2322629830
0.2310320590
0.2246092575
0.2132497608
0.1974429071
0.1779121915
0.1556152650
0.1316361479
0.1067856642
0.0821218266
0.0585149729
0.0365858907
0.0167049205
-0.0010069501
-0.0166778356
-0.0306849523
-0.0433939057
-0.0559308294
-0.0731763243
-0.0980396477
-0.1307448468
-0.1688307587
-0.2071510104
-0.2384062394
-0.2439244078
-0.2046550597
-0.1090275964
0.0470472003
0.2601771687
0.5190101907
0.7826492526
0.9879255295
1.0878158797
1.0536990954
0.8846522745
0.6310157565
0.3481822103
0.0831860490
-0.1263733350
-0.2656601509
-0.3370117601
-0.3489849416
-0.3161213154
-0.2589472700
-0.1993028855
-0.1471208249
-0.1069555484
-0.0799607754
-0.0638894838
-0.0532701081
-0.0443697487
-0.0361514926
-0.0276601101
-0.0182289878
-0.0074801226
0.0046758779
0.0181069533
0.0328887190
0.0490588336
0.0665965552
0.0854395439
0.1054849448
0.1265924253
0.1485810343
0.1712282228
0.1942698440
0.2174001529
0.2403219883
0.2627564363
0.2842341887
0.3043170888
0.3226124209
0.3387729107
0.3524967249
0.3635274713
0.3716541990
0.3767113980
0.3785789998
0.3771823768
0.3724807114
0.3643266975
0.3529633937
0.3387628918
0.3220903102
0.3033037945
0.2827545173
0.2607856158
0.2377286977
0.2139071756
0.1896374893
0.1652291051
0.1409845168
0.1171992447
0.0941618364
0.0721538663
0.0514499359
0.0322806547
0.0146820386
-0.0013742164
-0.0159234917
-0.0290083083
-0.0406782513
-0.0509899237
-0.0600070583
-0.0678005289
-0.0744483509
-0.0800356803
-0.0846548146
-0.0884051923
-0.0913933931
-0.0937331376
-0.0955446510
-0.0969522158
-0.0980781945
-0.0989489112
-0.0995683024
-0.0999308430
-0.1000103701
-0.0997600831
-0.0991125436
-0.0979796753
-0.0962527645
-0.0938024593
-0.0904787704
-0.0861110704
-0.0805080944
-0.0734579396
-0.0647280655
-0.0540652938
-0.0411958084
-0.0258032167
-0.0078442511
0.0122197309
0.0338539239
0.0564729225
0.0794407212
0.1020707348
0.1236258873
0.1433185402
0.1603104549
0.1737127929
0.1825861156
0.1859673964
0.1836199524
0.1760958350
0.1640141512
0.1480307087
0.1288380158
0.1071652814
0.0837784151
0.0594800266
0.0351093500
0.0115421267
-0.0103092310
-0.0284713976
-0.0428085272
-0.0558714774
-0.0697305269
-0.0859549740
-0.1056131369
-0.1292723535
-0.1569994440
-0.1883631068
-0.2224321521
-0.2577789969
-0.2863346013
-0.2846705493
-0.2340538388
-0.1242856537
0.0462986355
0.2708294720
0.5337660369
0.7924354212
0.9792526910
1.0488838402
0.9825534265
0.7899058572
0.5226430727
0.2400388088
-0.0133412383
-0.2078099611
-0.3295133496
-0.3846681002
-0.3856257564
-0.3474660952
-0.2879971274
-0.2275535109
-0.1791679388
-0.1433879457
-0.1189804835
-0.1036217777
-0.0938973278
-0.0856897070
-0.0774619183
-0.0687487220
-0.0591284764
-0.0482989903
-0.0360775224
-0.0224007820
-0.0073198151
0.0091743864
0.0270694883
0.0462788385
0.0666825412
0.0881273707
0.1104267708
0.1333608552
0.1566764077
0.1800868818
0.2032724007
0.2258797578
0.2475219321
0.2677747108
0.2862430343
0.3026661135
0.3166677201
0.3279270733
0.3361919350
0.3412786098
0.3430719450
0.3415253308
0.3366607000
0.3285685281
0.3174078336
0.3034061774
0.2868596635
0.2681241580
0.2474419511
0.2251985984
0.2018310126
0.1777437126
0.1533088231
0.1288660751
0.1047228056
0.0811539575
0.0584020798
0.0366777735
0.0161633081
-0.0029892683
-0.0206006093
-0.0366052891
-0.0510714880
-0.0640689477
-0.0756687846
-0.0859434898
-0.0949669290
-0.1028143429
-0.1095623465
-0.1152889300
-0.1200734579
-0.1239966697
-0.1271407345
-0.1295895671
-0.1314286096
-0.1327446795
-0.1336259689
-0.1341620448
-0.1344408419
-0.1344766141
-0.1342120799
-0.1335731810
-0.1324688344
-0.1307938430
-0.1284275959
-0.1252321752
-0.1210523311
-0.1157154813
-0.1090317114
-0.1007937747
-0.0907770921
-0.0787397525
-0.0644225123
-0.0472933452
-0.0271526675
-0.0048378905
0.0188207019
0.0430259913
0.0670140253
0.0900540174
0.1114483469
0.1305325589
0.1466753644
0.1592786402
0.1677774290
0.1716399393
0.1703675455
0.1635065017
0.1513241293
0.1349299289
0.1153834019
0.0936651816
0.0706770333
0.0472418541
0.0241036734
0.0019276522
-0.0186999163
-0.0372716071
-0.0527116492
-0.0649867720
-0.0768331016
-0.0905069498
-0.1076873202
-0.1294756060
-0.1563957066
-0.1883942381
-0.2248405368
-0.2633473664
