ECG
1.0901225010
1.0330287932
0.8854339619
0.6764023677
0.4373873669
0.2009114331
-0.0046398272
-0.1666980282
-0.2797866604
-0.3434174670
-0.3620904434
-0.3452938374
-0.3063690915
-0.2568710681
-0.2063259743
-0.1615101306
-0.1263810067
-0.1020772209
-0.0869185410
-0.0767808326
-0.0695605879
-0.0642540963
-0.0598867669
-0.0557051620
-0.0511769968
-0.0459911395
-0.0400568637
-0.0334967694
-0.0263031819
-0.0183239510
-0.0094896232
0.0002553168
0.0109524461
0.0226294037
0.0352998903
0.0489636684
0.0636065624
0.0792004585
0.0957033046
0.1130599509
0.1313306697
0.1504167851
0.1700800493
0.1900892549
0.2102202354
0.2302558644
0.2499860562
0.2692077656
0.2877249878
0.3053487586
0.3218971542
0.3371943591
0.3510669706
0.3633472029
0.3738743109
0.3824945898
0.3890613753
0.3934350438
0.3954830119
0.3950604999
0.3919219641
0.3862112365
0.3781611277
0.3679983049
0.3559432916
0.3422104678
0.3270080699
0.3105381905
0.2929967791
0.2745736411
0.2554524387
0.2358106903
0.2158197709
0.1956449117
0.1754452006
0.1553735817
0.1355781268
0.1162080780
0.0974091450
0.0793208968
0.0620767591
0.0458040138
0.0306237994
0.0166448618
0.0038690382
-0.0077654775
-0.0183172501
-0.0278433598
-0.0363994020
-0.0440394880
-0.0508162442
-0.0567808125
-0.0619828503
-0.0664705305
-0.0702905414
-0.0734880867
-0.0761068857
-0.0781891730
-0.0797756986
-0.0809057281
-0.0816170425
-0.0819471459
-0.0819402205
-0.0816423966
-0.0810983345
-0.0803512100
-0.0794427145
-0.0784050666
-0.0772267637
-0.0759249717
-0.0745215439
-0.0730364622
-0.0714878368
-0.0698919059
-0.0682630364
-0.0666137231
-0.0649545895
-0.0632943870
-0.0616399956
-0.0599964234
-0.0583668070
-0.0567524111
-0.0551526288
-0.0535649815
-0.0519851189
-0.0504068189
-0.0488213365
-0.0472132365
-0.0455630502
-0.0438494267
-0.0420491439
-0.0402028411
-0.0382477679
-0.0360089846
-0.0333223134
-0.0300343416
-0.0260024218
-0.0210946717
-0.0151899741
-0.0081779772
0.0000409059
0.0095554967
0.0204438517
0.0327732621
0.0466002541
0.0619705885
0.0789217615
0.0976974777
0.1178924322
0.1387634180
0.1596272948
0.1798608197
0.1988997496
0.2162396503
0.2314361720
0.2441050317
0.2539220134
0.2606229675
0.2640038114
0.2639205295
0.2602891726
0.2530858585
0.2423469053
0.2283304736
0.2117448895
0.1933119433
0.1736868328
0.1534581633
0.1331479471
0.1132116043
0.0940379620
0.0759492548
0.0592011247
0.0439826209
0.0304162000
0.0185577261
0.0085148911
0.0006952416
-0.0058175335
-0.0120879407
-0.0190991546
-0.0277530179
-0.0388700411
-0.0531894028
-0.0713689497
-0.0939851963
-0.1215333251
-0.1557742218
-0.1926672153
-0.2152681037
-0.2099977148
-0.1675761565
-0.0830228171
0.0443436347
0.2109052499
0.4087447993
0.6256457732
0.8436413254
1.0245469757
1.1300976843
1.1396356731
1.0502871860
0.8769609565
0.6517156349
0.4105048726
0.1826961770
-0.0102335826
-0.1553469717
-0.2482459900
-0.2927321823
-0.2945534163
-0.2667713097
-0.2227498932
-0.1731063731
-0.1257111316
-0.0856877262
-0.0554128902
-0.0344228871
-0.0191646095
-0.0078868937
0.0003766774
0.0064953969
0.0112414346
0.0152898362
0.0192185239
0.0235082962
0.0285428517
0.0346090702
0.0418969197
0.0504992487
0.0604117818
0.0715331203
0.0836647414
0.0965109988
0.1100205550
0.1245125230
0.1399671205
0.1563418486
0.1735752178
0.1915867478
0.2102769675
0.2295274155
0.2492006392
0.2691401957
0.2891706512
0.3090975814
0.3287075710
0.3477682144
0.3660281149
0.3833161766
0.3994429921
0.4141357690
0.4271578156
0.4383078469
0.4474178743
0.4543531584
0.4590122088
0.4613267838
0.4612618909
0.4588157866
0.4540199762
0.4469392142
0.4376715037
0.4263480972
0.4131334958
0.3982254500
0.3818549023
0.3641656551
0.3453445349
0.3256821493
0.3054497645
0.2848993047
0.2642633529
0.2437551505
0.2235685971
0.2038782508
0.1848390306
0.1665812513
0.1492113787
0.1328163911
0.1174639254
0.1032022767
0.0900603987
0.0780479035
0.0671581178
0.0574415092
0.0488582167
0.0413226165
0.0347520839
0.0290669935
0.0241907194
0.0200496345
0.0165731113
0.0136935214
0.0113462357
0.0094696245
0.0080050571
0.0068969021
0.0060925275
0.0055423006
0.0051995876
0.0050210087
0.0049716289
0.0050249469
0.0051577442
0.0053498009
0.0055838969
0.0058458110
0.0061243214
0.0064112056
0.0067012403
0.0069922014
0.0072945907
0.0076205656
0.0079588075
0.0083006417
0.0086406121
0.0089764806
0.0093092276
0.0096430514
0.0099853688
0.0103468146
0.0107412422
0.0111857228
0.0117005463
0.0123092204
0.0130383133
0.0139135972
0.0149598233
0.0162047581
0.0176793864
0.0194109645
0.0213718712
0.0237170423
0.0266402149
0.0303174085
0.0349069247
0.0405493474
0.0473675427
0.0554666588
0.0649341261
0.0758396573
0.0882352473
0.1021551732
0.1176159942
0.1346165519
0.1532268482
0.1733169228
0.1941899332
0.2151749727
0.2356530363
0.2550570745
0.2728735995
0.2886427664
0.3019566479
0.3124592179
0.3198463515
0.3238658251
0.3243173162
0.3210524038
0.3139739308
0.3031474559
0.2891844302
0.2727842904
0.2545944013
0.2352100558
0.2151744746
0.1949788065
0.1750621285
0.1558114453
0.1375616898
0.1205957229
0.1051443335
0.0913862385
0.0800504798
0.0723183322
0.0664247441
0.0606908051
0.0537581190
0.0445871563
0.0324571358
0.0169660244
-0.0019694627
-0.0241138622
-0.0489129626
-0.0754938042
-0.1026646791
-0.1290158310
-0.1520213451
-0.1543099842
-0.1197472022
-0.0389863218
0.0905314653
0.2645770986
0.4721336484
0.6953963164
0.9097724350
1.0826089556
1.1777088124
1.1803133339
1.0897344429
0.9180428021
0.6900640736
0.4433771332
0.2184409515
0.0302716647
-0.1117022693
-0.2034816703
-0.2466515855
-0.2483812889
-0.2205942929
-0.1750495602
-0.1233374002
-0.0742096489
-0.0332635306
-0.0029416584
0.0174679660
0.0313063925
0.0406992074
0.0471985248
0.0521285038
0.0565065657
0.0610433936
0.0661429323
0.0719023886
0.0781345239
0.0849048935
0.0923614573
0.1005706147
0.1095888551
0.1194621740
0.1302260734
0.1419055616
0.1545151532
0.1680588692
0.1825385694
0.1982301372
0.2150953689
0.2328962990
0.2514024486
0.2703908257
0.2896459248
0.3089597271
0.3281317007
0.3469688002
0.3652854670
0.3829036292
0.3996527016
0.4153695857
0.4298986697
0.4430918284
0.4548084010
0.4649131417
0.4732749362
0.4797701385
0.4842826038
0.4867036739
0.4869321775
0.4848744298
0.4804442329
0.4735378518
0.4641321484
0.4524913947
0.4388902795
0.4235922847
0.4068496850
0.3889035480
0.3699837343
0.3503088975
0.3300864841
0.3095127335
0.2887726780
0.2680401429
0.2474777465
0.2272368998
0.2074578071
0.1882694654
0.1697896747
0.1521250476
0.1353709921
0.1196117091
0.1049201925
0.0913582290
0.0789796000
0.0677811559
0.0576889689
0.0486286909
0.0405284493
0.0333188466
0.0269329606
0.0213063444
0.0163770262
0.0120855094
0.0083747727
0.0051902702
0.0024799309
0.0001941593
-0.0017141649
-0.0032896870
-0.0045745768
-0.0056085289
-0.0064287578
-0.0070689128
-0.0075581416
-0.0079234064
-0.0081892420
-0.0083777086
-0.0085083906
-0.0085983451
-0.0086275548
-0.0085861089
-0.0084942709
-0.0083691607
-0.0082247546
-0.0080718855
-0.0079182428
-0.0077683722
-0.0076236761
-0.0074824133
-0.0073396990
-0.0071875051
-0.0070146596
-0.0068068474
-0.0065466096
-0.0062133438
-0.0057833044
-0.0052296050
-0.0045234581
-0.0036360476
-0.0025358947
-0.0011883771
0.0004442711
0.0023739301
0.0046127255
0.0073911776
0.0109318937
0.0154284298
0.0210452914
0.0279179327
0.0361527570
0.0458271168
0.0569893135
0.0696585976
0.0838251686
0.0994501751
0.1164657148
0.1347748343
0.1543806951
0.1749347447
0.1956335372
0.2157469398
0.2346234390
0.2516909159
0.2664583240
0.2785142264
0.2875258877
0.2932391905
0.2954786361
0.2941473434
0.2892270501
0.2807781117
0.2689374409
0.2539254064
0.2364065959
0.2171221367
0.1967410896
0.1758604498
0.1550051463
0.1346280420
0.1151099340
0.0967595532
0.0798135646
0.0644365670
0.0507210933
0.0386876105
0.0282845194
0.0194187835
0.0120522762
0.0054111443
-0.0014874815
-0.0096851970
-0.0202823241
-0.0344379114
-0.0533697335
-0.0783542915
-0.1098921504
-0.1429266649
-0.1700046530
-0.1833136667
-0.1746836283
-0.1355868304
-0.0571451451
0.0671716437
0.2357997427
0.4393469741
0.6605036315
0.8740424795
1.0468187539
1.1399420500
1.1347856541
1.0341025619
0.8538868507
0.6236761679
0.3815036186
0.1552720273
-0.0349792623
-0.1777563980
-0.2700416841
-0.3128385910
-0.3161054853
-0.2920014482
-0.2512115423
-0.2029468116
-0.1549442813
-0.1134669581
-0.0829173903
-0.0622969598
-0.0487633832
-0.0399993405
-0.0341257624
-0.0297018300
-0.0257249747
-0.0216308789
-0.0172433448
-0.0123704000
-0.0068949162
-0.0007328599
0.0061887284
0.0139316199
0.0225465116
0.0320730652
0.0425399064
0.0539646256
0.0663537774
0.0797028810
0.0939964197
0.1092078415
0.1252995585
0.1422748766
0.1601565856
0.1787379016
0.1978028675
0.2171399343
0.2365419608
0.2558062141
0.2747343693
0.2931325095
0.3108111258
0.3275851175
0.3432737918
0.3577008642
0.3706944579
0.3820876518
0.3917204610
0.3994382878
0.4050910440
0.4085330498
0.4096230332
0.4081005974
0.4037423748
0.3967923149
0.3875029697
0.3761187906
0.3628761290
0.3480032360
0.3317202624
0.3142392586
0.2957641749
0.2764908614
0.2566070677
0.2362924434
0.2157185376
0.1950487992
0.1744385770
0.1540351193
0.1339775744
0.1143969900
0.0954155137
0.0771430985
0.0596802907
0.0431195362
0.0275451801
0.0130334676
-0.0003474564
-0.0125375474
-0.0235089771
-0.0333311719
-0.0420865867
-0.0498544756
-0.0567111396
-0.0627299263
-0.0679812303
-0.0725324928
-0.0764482018
-0.0797898921
-0.0826161453
-0.0849825896
-0.0869419002
-0.0885437990
-0.0898350545
-0.0908594821
-0.0916579441
-0.0922678255
-0.0927205439
-0.0930436375
-0.0932617824
-0.0933967030
-0.0934671703
-0.0934890022
-0.0934750633
-0.0934352649
-0.0933765651
-0.0933029689
-0.0932155280
-0.0930756355
-0.0928160421
-0.0924828404
-0.0921196397
-0.0917621454
-0.0914381586
-0.0911675765
-0.0909623922
-0.0908266947
-0.0907566689
-0.0907405957
-0.0907588520
-0.0907839106
-0.0907804252
-0.0907057031
-0.0905093719
-0.0901331554
-0.0895108739
-0.0885684432
-0.0872238753
-0.0853872778
-0.0829608547
-0.0798389055
-0.0759078260
-0.0710461077
-0.0651243382
-0.0580052007
-0.0495434748
-0.0395860092
-0.0279875770
-0.0147259003
0.0001329232
0.0164643267
0.0340852741
0.0527542605
0.0721713116
0.0919779843
0.1117573660
0.1310338475
0.1492716592
0.1658758844
0.1801932107
0.1915608472
0.1996343224
0.2042245597
0.2052281854
0.2026341577
0.1965237668
0.1870706349
0.1745407161
0.1592922968
0.1417759949
0.1225347607
0.1022038762
0.0815109556
0.0610486013
0.0411310329
0.0221593734
0.0044498602
-0.0117673687
-0.0263482745
-0.0392349175
-0.0504554576
-0.0601238705
-0.0684378305
-0.0756799017
-0.0820554073
-0.0874052802
-0.0944280663
-0.1054931901
-0.1219548751
-0.1441521437
-0.1714088172
-0.2020335159
-0.2333196812
-0.2623350200
-0.2776592538
-0.2661256517
-0.2185458482
-0.1297098436
0.0016139962
0.1726789398
0.3767598903
0.6024497834
0.8179904741
0.9825188344
1.0679725526
1.0598068236
0.9569942377
0.7732937231
0.5431032122
0.3017934452
0.0767411543
-0.1126937649
-0.2550954293
-0.3451331037
-0.3885707655
-0.3945470725
-0.3723271569
-0.3313026250
-0.2809915569
-0.2310385070
-0.1905185410
-0.1608852004
-0.1399531618
-0.1257731849
-0.1165282799
-0.1105337079
-0.1062369806
-0.1022670755
-0.0980815555
-0.0935515286
-0.0885436410
-0.0829413315
-0.0766452959
-0.0695732966
-0.0616598475
-0.0528562082
-0.0431303850
-0.0324575098
-0.0206719186
-0.0077585717
0.0062181078
0.0211852212
0.0370613938
0.0537567755
0.0711730405
0.0892033873
0.1077325388
0.1266367421
0.1457837688
0.1650329147
0.1842350000
0.2032323692
0.2218588912
0.2399399592
0.2572924908
0.2737249277
0.2890373048
0.3030220670
0.3154638401
0.3261388703
0.3348149392
0.3412513525
0.3452350420
0.3467652032
0.3459049098
0.3427270734
0.3373166174
0.3297704773
0.3201976009
0.3087189480
0.2954674907
0.2805882130
0.2642381111
0.2465861934
0.2278134804
0.2081130046
0.1876898107
0.1667609556
0.1455555084
0.1243145499
0.1032911735
0.0827504379
0.0629292745
0.0438675930
0.0256351724
0.0083019481
-0.0080739547
-0.0234462209
-0.0377803452
-0.0510536328
-0.0632551988
-0.0743859681
-0.0844586761
-0.0934978681
-0.1015398994
-0.1086329354
-0.1148369517
-0.1202237339
-0.1248768776
-0.1288917886
-0.1323652941
-0.1353192691
-0.1377984120
-0.1398554889
-0.1415400844
-0.1428986022
-0.1439741961
-0.1448056268
-0.1454274192
-0.1458708446
-0.1461639847
-0.1463317399
-0.1463958295
-0.1463747913
-0.1462839819
-0.1461355768
-0.1459385699
-0.1456987742
-0.1454188211
-0.1450981609
-0.1447265456
-0.1442261065
-0.1436145955
-0.1429354137
-0.1422241881
-0.1415087717
-0.1408092433
-0.1401379077
-0.1394992956
-0.1388901635
-0.1382994941
-0.1377085827
-0.1370927985
-0.1364215013
-0.1356563474
-0.1347512191
-0.1336522246
-0.1322976980
-0.1306181992
-0.1285365143
-0.1259676550
-0.1228188592
-0.1189895905
-0.1143715386
-0.1088486188
-0.1022969728
-0.0945849678
-0.0855731971
-0.0751144800
-0.0630471557
-0.0491912940
-0.0336532361
-0.0166379291
0.0016129367
0.0208209277
0.0406708674
0.0608108638
0.0808529925
0.1003733152
0.1189110486
0.1359686179
0.1510117051
0.1634692493
0.1727334460
0.1782298222
0.1798848229
0.1778184494
0.1722024921
0.1632695945
0.1513132534
0.1366878188
0.1198084940
0.1011513355
0.0812532530
0.0607120095
0.0401862214
0.0202743559
0.0012258516
-0.0166115101
-0.0329698024
-0.0476780004
-0.0606619267
-0.0719425744
-0.0816357999
-0.0899542447
-0.0972074526
-0.1038018693
-0.1100773043
-0.1152584586
-0.1229116337
-0.1363110801
-0.1569128533
-0.1843548139
-0.2164566278
-0.2492197662
-0.2768275053
-0.2916449267
-0.2850577087
-0.2498908802
-0.1737095893
-0.0502420277
0.1188683411
0.3240627816
0.5478672862
0.7648925757
0.9427931150
1.0477772447
1.0588837879
0.9722276424
0.8010045994
0.5754910063
0.3344204402
0.1060473458
-0.0885584709
-0.2363722216
-0.3324141364
-0.3797357866
-0.3846644892
-0.3587547754
-0.3155212577
-0.2657714389
-0.2176057111
-0.1764173564
-0.1448925467
-0.1228464330
-0.1076240051
-0.0973330212
-0.0904304475
-0.0855996584
-0.0817504368
-0.0780189744
-0.0737678400
-0.0685844256
-0.0622802265
-0.0548929645
-0.0466867703
-0.0380608997
-0.0287133932
-0.0184696359
-0.0072780734
0.0048948122
0.0180645028
0.0322284438
0.0473660446
0.0634386784
0.0803896822
0.0981443567
0.1166099663
0.1356757394
0.1552144426
0.1751833788
0.1953958193
0.2155751127
0.2354593343
0.2548012862
0.2733684971
0.2909432205
0.3073222957
0.3223170631
0.3357536053
0.3474727624
0.3573301025
0.3651959203
0.3709552371
0.3745078010
0.3757680871
0.3746652967
0.3710005573
0.3645986685
0.3557396094
0.3447056697
0.3317676811
0.3171850173
0.3012055936
0.2840658672
0.2659908372
0.2471940445
0.2278775718
0.2082320438
0.1884366268
0.1686590291
0.1490554935
0.1297701276
0.1109343589
0.0926680289
0.0750795210
0.0582657603
0.0423122138
0.0272928903
0.0132703406
0.0002956571
-0.0115915258
-0.0223630320
-0.0320031310
-0.0405489424
-0.0480806416
-0.0546766470
-0.0604122469
-0.0653595991
-0.0695877311
-0.0731625403
-0.0761467936
-0.0786001277
-0.0805790490
-0.0821369336
-0.0833240273
-0.0841874366
-0.0847699098
-0.0851085947
-0.0852372976
-0.0851868069
-0.0849847882
-0.0846557766
-0.0842211774
-0.0836992651
-0.0831051841
-0.0824509487
-0.0817454427
-0.0809942101
-0.0801727952
-0.0792797072
-0.0783364417
-0.0773606051
-0.0763659151
-0.0753622003
-0.0743554002
-0.0733475654
-0.0723368576
-0.0713175492
-0.0702800239
-0.0692107763
-0.0680924193
-0.0669053233
-0.0656296730
-0.0642422706
-0.0627160290
-0.0610199721
-0.0591192349
-0.0569750633
-0.0545448144
-0.0517819562
-0.0486708120
-0.0451684205
-0.0410269471
-0.0360189350
-0.0299511068
-0.0226643641
-0.0140337882
-0.0039686394
0.0075876426
0.0206574386
0.0352289506
0.0512562007
0.0686590321
0.0873231085
0.1071241384
0.1279988158
0.1492532898
0.1701235102
0.1899271464
0.2080631352
0.2240115264
0.2373334605
0.2476711695
0.2547479764
0.2583682953
0.2584176316
0.2548625816
0.2477508329
0.2372111642
0.2234179655
0.2069565372
0.1885798313
0.1689695144
0.1487359673
0.1284182857
0.1084842792
0.0893304723
0.0712821038
0.0545931269
0.0394462093
0.0259527328
0.0141524856
0.0040130991
-0.0045639868
-0.0115509627
-0.0175755827
-0.0236142899
-0.0306934032
-0.0398891177
-0.0523275045
-0.0691845109
-0.0916859603
-0.1209307153
-0.1536436162
-0.1822941218
-0.1990213447
-0.1957729770
-0.1643052902
-0.0961831353
0.0169652287
0.1766374967
0.3736661141
0.5921049438
0.8094065607
0.9964222519
1.1174020165
1.1356511144
1.0538634472
0.8948558978
0.6835576826
0.4469598081
0.2141151045
0.0156630076
-0.1329650699
-0.2314895207
-0.2821797630
-0.2907916960
-0.2665677000
-0.2222366363
-0.1716774963
-0.1229592189
-0.0810837316
-0.0488384615
-0.0267962722
-0.0133154633
-0.0046426323
0.0017549729
0.0066715364
0.0109247158
0.0151363552
0.0197324846
0.0249454795
0.0308196378
0.0372664614
0.0444099900
0.0523443761
0.0611358197
0.0708372821
0.0814884857
0.0931159142
0.1057328126
0.1193391870
0.1339218046
0.1494541941
0.1659172921
0.1833714330
0.2016576346
0.2205764202
0.2399304403
0.2595244723
0.2791654207
0.2986623172
0.3178263203
0.3364707158
0.3544109165
0.3714644621
0.3874486146
0.4021730470
0.4154471298
0.4270824898
0.4368929241
0.4446943566
0.4503048386
0.4535259245
0.4540268433
0.4518926722
0.4473198069
0.4405018988
0.4316298545
0.4208918364
0.4084732622
0.3945568052
0.3793223943
0.3629472138
0.3456057035
0.3274695588
0.3087077305
0.2894864250
0.2699691041
0.2503164854
0.2306865416
0.2112363304
0.1921284999
0.1735253268
0.1555863436
0.1384683381
0.1223253537
0.1073086894
0.0935242310
0.0809035385
0.0693897594
0.0589306324
0.0494744473
0.0409700453
0.0333668191
0.0266147123
0.0206642202
0.0154663891
0.0109728168
0.0071356522
0.0039075958
0.0012418990
-0.0009076351
-0.0025866525
-0.0038402475
-0.0047129634
-0.0052498805
-0.0055011259
-0.0055180828
-0.0053516998
-0.0050474049
-0.0046070337
-0.0040431836
-0.0033733439
-0.0026137749
-0.0017795077
-0.0008843446
0.0000591417
0.0010396070
0.0020469366
0.0030722447
0.0041078745
0.0051473986
0.0061856184
0.0072185643
0.0082434962
0.0092589026
0.0102645015
0.0112612396
0.0122512929
0.0132380827
0.0142327837
0.0152505243
0.0163126211
0.0174525580
0.0187159850
0.0201607180
0.0218567387
0.0238861947
0.0263433993
0.0293348321
0.0329791382
0.0374071288
0.0427617808
0.0491982372
0.0568838067
0.0659979640
0.0767906141
0.0894301328
0.1037782726
0.1196523735
0.1368339434
0.1550686581
0.1740663615
0.1935010658
0.2130109507
0.2321980853
0.2506268687
0.2678251295
0.2832849371
0.2964625904
0.3067785585
0.3136174780
0.3163369248
0.3147369272
0.3092507289
0.3003503684
0.2885035635
0.2741737108
0.2578198863
0.2398968451
0.2208550215
0.2011405288
0.1811951594
0.1614563852
0.1423573568
0.1243269043
0.1077895367
0.0930958830
0.0799704677
0.0685774429
0.0590269248
0.0511782010
0.0446393067
0.0387666773
0.0326651461
0.0251879443
0.0149367016
0.0003202405
-0.0200860699
-0.0467895929
-0.0779457390
-0.1092232066
-0.1338039817
-0.1427166600
-0.1270443793
-0.0753028810
0.0198334307
0.1601989891
0.3421370646
0.5572138570
0.7915735162
0.9994883112
1.1415162325
1.1936922699
1.1475284120
1.0100136531
0.8036140459
0.5651730472
0.3287839867
0.1174063190
-0.0529835354
-0.1734312012
-0.2420043475
-0.2637926886
-0.2503960748
-0.2131160568
-0.1641131821
-0.1136167361
-0.0688103416
-0.0338319587
-0.0097738845
0.0053172463
0.0155395793
0.0224913481
0.0274081037
0.0313598250
0.0351619018
0.0393751354
0.0443057379
0.0500053330
0.0563054431
0.0633048722
0.0711264825
0.0798293642
0.0894607426
0.1000559775
0.1116385637
0.1242201308
0.1378004433
0.1523674004
0.1678977341
0.1845246489
0.2022125285
0.2207424946
0.2398998542
0.2594741002
0.2792589111
0.2990521509
0.3186558695
0.3378763021
0.3565238697
0.3744131791
0.3913630225
0.4071963778
0.4217404086
0.4348266180
0.4462924239
0.4559805172
0.4637377233
0.4694149207
0.4728671581
0.4739536698
0.4725281789
0.4683645204
0.4616056754
0.4525009360
0.4412925095
0.4282155186
0.4134980014
0.3973609111
0.3800181163
0.3616764010
0.3425354644
0.3227879211
0.3026193009
0.2822080490
0.2617255258
0.2413360073
0.2211966844
0.2014576636
0.1822618355
0.1637432969
0.1460278643
0.1292342448
0.1134740609
0.0988518503
0.0854620674
0.0733095349
0.0623228815
0.0524321926
0.0435693167
0.0356678652
0.0286632123
0.0224924950
0.0170946136
0.0124102309
0.0083817728
0.0049534281
0.0020711486
-0.0003173513
-0.0022625940
-0.0038133390
-0.0050165830
-0.0059175599
-0.0065597403
-0.0069847848
-0.0072318662
-0.0073378315
-0.0073377329
-0.0072648083
-0.0071463961
-0.0069718869
-0.0067490171
-0.0064915638
-0.0062116437
-0.0059197137
-0.0056245704
-0.0053333504
-0.0050515302
-0.0047829263
-0.0045296949
-0.0042923323
-0.0040696747
-0.0038588980
-0.0036555182
-0.0034533913
-0.0032447129
-0.0030200187
-0.0027681844
-0.0024764255
-0.0021302739
-0.0017131811
-0.0012158321
-0.0006430336
0.0001076406
0.0011540338
0.0026141376
0.0046060916
0.0072481838
0.0106588500
0.0149566746
0.0202603899
0.0266888765
0.0343611631
0.0433964267
0.0539139924
0.0660333334
0.0798899025
0.0957261397
0.1131993998
0.1318111672
0.1510739609
0.1705113345
0.1896578757
0.2080592069
0.2252719534
0.2408631042
0.2544100395
0.2655012193
0.2737365026
0.2787268986
0.2800944510
0.2774714668
0.2705345445
0.2597473598
0.2458334364
0.2294664176
0.2112700656
0.1918182621
0.1716350080
0.1511944236
0.1309207481
0.1111883404
0.0923216784
0.0745953594
0.0582340998
0.0434127354
0.0302562212
0.0188396316
0.0091165623
0.0007962424
-0.0063733630
-0.0129528455
-0.0198417242
-0.0282784458
-0.0397612398
-0.0557828644
-0.0782108794
-0.1068728098
-0.1391815522
-0.1701353748
-0.1924307789
-0.2010263732
-0.1818496612
-0.1215860143
-0.0139153212
0.1404880119
0.3339550615
0.5518223871
0.7724320304
0.9659998575
1.0951558543
1.1342238917
1.0744291194
0.9238729843
0.7075332556
0.4656816497
0.2310043878
0.0247568240
-0.1383695836
-0.2509299373
-0.3127255374
-0.3306841436
-0.3137217425
-0.2745713305
-0.2257182846
-0.1766223641
-0.1337177108
-0.1004128488
-0.0770906848
-0.0614001982
-0.0509736546
-0.0441701584
-0.0395960010
-0.0361076485
-0.0328117415
-0.0290650955
-0.0244747005
-0.0188977213
-0.0124414972
-0.0054319550
0.0022620652
0.0108297196
0.0203294934
0.0308049189
0.0422845761
0.0547820920
0.0682961413
0.0828104457
0.0982937744
0.1146999439
0.1319678182
0.1500348263
0.1689090994
0.1884069625
0.2083029389
0.2283766316
0.2484127233
0.2682009763
0.2875362325
0.3062184138
0.3240525212
0.3408486359
0.3564219183
0.3705926088
0.3831859951
0.3940307932
0.4029583856
0.4098050815
0.4144128514
0.4166065146
0.4160920483
0.4129684281
0.4074252056
0.3996500692
0.3898288437
0.3781454907
0.3647821081
0.3499189306
0.3337343291
0.3164048115
0.2981050220
0.2790077415
0.2592838874
0.2391025136
0.2186308106
0.1980341056
0.1774758622
0.1571176807
0.1371192979
0.1176386308
0.0988347262
0.0808696340
0.0639039864
0.0480932861
0.0334688588
0.0199694434
0.0075439790
-0.0038580084
-0.0142864056
-0.0237905124
-0.0324190413
-0.0402201179
-0.0472412804
-0.0535294801
-0.0591310810
-0.0640918601
-0.0684570073
-0.0722711253
-0.0755782297
-0.0784217490
-0.0808445245
-0.0828888105
-0.0845962740
-0.0860079950
-0.0871644876
-0.0881076977
-0.0888826415
-0.0895341411
-0.0900696309
-0.0904790451
-0.0907797677
-0.0909876313
-0.0911169174
-0.0911803557
-0.0911891251
-0.0911528527
-0.0910796144
-0.0909759350
-0.0908467877
-0.0906955943
-0.0905242254
-0.0903330003
-0.0901206869
-0.0898845016
-0.0896201097
-0.0893216251
-0.0889816102
-0.0885910763
-0.0881394830
-0.0876147329
-0.0870023106
-0.0863156675
-0.0855793800
-0.0846603265
-0.0834199931
-0.0817248842
-0.0794465233
-0.0764614522
-0.0726512314
-0.0679024400
-0.0621066760
-0.0551605556
-0.0469657141
-0.0374288051
-0.0264615009
-0.0139804926
0.0000925103
0.0158307795
0.0335337487
0.0529932353
0.0734685929
0.0942752207
0.1147851825
0.1344272059
0.1526866761
0.1691041383
0.1832734023
0.1948444754
0.2035241001
0.2090758156
0.2113198395
0.2101330536
0.2054490039
0.1972579005
0.1856056942
0.1707639664
0.1534754969
0.1344868118
0.1144687662
0.0940165449
0.0736496613
0.0538119587
0.0348716093
0.0171211144
0.0007773049
-0.0140186594
-0.0272012891
-0.0387807659
-0.0488429421
-0.0575493344
-0.0651345221
-0.0712544695
-0.0771640415
-0.0850849070
-0.0966373418
-0.1128402282
-0.1341110554
-0.1602659196
-0.1905195235
-0.2238561383
-0.2550723188
-0.2709273443
-0.2603415758
-0.2152545893
-0.1306251760
-0.0044313419
0.1623296916
0.3656608248
0.5964167984
0.8142805780
0.9785221893
1.0622430831
1.0523761350
0.9496856460
0.7687760050
0.5392586802
0.2970114444
0.0706603058
-0.1194738969
-0.2613754842
-0.3513339487
-0.3938141418
-0.3948932849
-0.3666019403
-0.3223196568
-0.2726567397
-0.2254542508
-0.1857840081
-0.1559485862
-0.1354813160
-0.1215446844
-0.1119478646
-0.1053753562
-0.1006985320
-0.0969733533
-0.0934403701
-0.0895247211
-0.0848361337
-0.0791689239
-0.0725019959
-0.0649969579
-0.0569646482
-0.0482540856
-0.0386775015
-0.0281787850
-0.0167199936
-0.0042813530
0.0091387429
0.0235237323
0.0388388848
0.0550313019
0.0720299172
0.0897454957
0.1080706344
0.1268797622
0.1460599463
0.1655572418
0.1851076219
0.2044361813
0.2232850991
0.2414136387
0.2585981478
0.2746320588
0.2893258879
0.3025072361
0.3140195697
0.3237190504
0.3314779368
0.3371855397
0.3407480996
0.3420888945
0.3411482868
0.3378837232
0.3321456431
0.3238989242
0.3134121739
0.3009467814
0.2867539933
0.2710749140
0.2541405056
0.2361715881
0.2173788389
0.1979627932
0.1781138441
0.1580122421
0.1378280956
0.1177213707
0.0978418911
0.0783293384
0.0593132517
0.0409137712
0.0232439129
0.0064073167
-0.0095025200
-0.0244022421
-0.0382186366
-0.0508877645
-0.0623535251
-0.0726648748
-0.0818997419
-0.0901332138
-0.0974375362
-0.1038821137
-0.1095335096
-0.1144554454
-0.1187088019
-0.1223516179
-0.1254390914
-0.1280235786
-0.1301545947
-0.1318788133
-0.1332400668
-0.1342793462
-0.1350348012
-0.1355417399
-0.1358329743
-0.1359400546
-0.1358921414
-0.1357155427
-0.1354336318
-0.1350668953
-0.1346329785
-0.1341466852
-0.1336199778
-0.1330619773
-0.1324789635
-0.1318743747
-0.1312488081
-0.1306000192
-0.1299229224
-0.1292044540
-0.1284243190
-0.1276091299
-0.1267839799
-0.1259660931
-0.1251648242
-0.1243816586
-0.1236102122
-0.1228362319
-0.1220375950
-0.1211842990
-0.1202384159
-0.1191541308
-0.1178777591
-0.1163477471
-0.1144946717
-0.1122412407
-0.1095022923
-0.1061847954
-0.1022410855
-0.0976065163
-0.0919853861
-0.0851268426
-0.0768390660
-0.0669892692
-0.0555036973
-0.0423676280
-0.0276253715
-0.0113802703
0.0062053005
0.0249099335
0.0444531885
0.0644955933
0.0846418690
0.1044792725
0.1233373059
0.1405411018
0.1555124209
0.1677693418
0.1769263341
0.1826942390
0.1848802107
0.1833877150
0.1782165289
0.1694426379
0.1573496771
0.1425087373
0.1254868590
0.1068315108
0.0870705893
0.0667124194
0.0462457541
0.0261397743
0.0068440893
-0.0112146768
-0.0280639332
-0.0434941775
-0.0571014759
-0.0686891008
-0.0782675308
-0.0860545155
-0.0924754405
-0.0981630722
-0.1039573838
-0.1109055542
-0.1202619689
-0.1334882192
-0.1543593979
-0.1916447830
-0.2352812229
-0.2741129194
-0.2987449277
-0.3015431564
-0.2766343679
-0.2199061778
-0.1290070553
-0.0033463232
0.1559058424
0.3458184118
0.5616948309
0.7823797093
0.9603239115
1.0611697527
1.0668975533
0.9758256383
0.8025500395
0.5764290748
0.3345518742
0.1072158908
-0.0844434961
-0.2284529933
-0.3210678111
-0.3609225504
-0.3607760740
-0.3343276451
-0.2930535786
-0.2462072403
-0.2008190478
-0.1616964698
-0.1314240265
-0.1103632893
-0.0963901668
-0.0857145932
-0.0773477419
-0.0707025203
-0.0652454242
-0.0604965369
-0.0560295297
-0.0514716619
-0.0465037806
-0.0408599839
-0.0343250698
-0.0267359559
-0.0179831362
-0.0080106923
0.0031837060
0.0155488011
0.0289797476
0.0433181122
0.0583883871
0.0744035241
0.0913599187
0.1091371120
0.1276062351
0.1466300093
0.1660627458
0.1857503460
0.2055303014
0.2252316935
0.2446751937
0.2636730639
0.2820291555
0.2995389105
0.3159893607
0.3311591279
0.3448180511
0.3567238975
0.3666329552
0.3744223536
0.3800190777
0.3833648320
0.3844268355
0.3831978301
0.3796960810
0.3739653766
0.3660750283
0.3561198707
0.3442202615
0.3305220816
0.3151967349
0.2984411487
0.2804777732
0.2615545818
0.2419450711
0.2219482608
0.2017854785
0.1815864365
0.1615503110
0.1418568070
0.1226657975
0.1041175923
0.0863357115
0.0694257650
0.0534735610
0.0385450754
0.0246864522
0.0119240031
0.0002642079
-0.0103062859
-0.0198206628
-0.0283319395
-0.0359129647
-0.0426189171
-0.0484634295
-0.0535184354
-0.0578541704
-0.0615372347
-0.0646305929
-0.0671935747
-0.0692818741
-0.0709475500
-0.0722390259
-0.0732010897
-0.0738748944
-0.0742979572
-0.0745042202
-0.0745247729
-0.0743876201
-0.0741171426
-0.0737340071
-0.0732550198
-0.0726754033
-0.0719977493
-0.0712438174
-0.0704326298
-0.0695804712
-0.0687008891
-0.0678046935
-0.0668999571
-0.0659920153
-0.0650834660
-0.0641741698
-0.0632612500
-0.0623390925
-0.0613993459
-0.0604309212
-0.0594199923
-0.0583499957
-0.0572016303
-0.0559528580
-0.0545790476
-0.0530550416
-0.0513546728
-0.0494490828
-0.0473066756
-0.0448946996
-0.0422826754
-0.0393256427
-0.0357680511
-0.0313863860
-0.0259891687
-0.0194169566
-0.0115423428
-0.0022699564
0.0084635375
0.0206894379
0.0344070078
0.0495834745
0.0661540291
0.0840218270
0.1030579875
0.1231304397
0.1440288467
0.1649974277
0.1852833920
0.2042180428
0.2212206464
0.2357978915
0.2475404518
0.2561227954
0.2613029235
0.2629226082
0.2609074887
0.2552670712
0.2460947289
0.2335377525
0.2180462932
0.2003649919
0.1811813827
0.1611174364
0.1407295603
0.1205085983
0.1008798312
0.0822029762
0.0647721870
0.0488160543
0.0344976051
0.0219143031
0.0111002410
0.0023335666
-0.0047477048
-0.0109718829
-0.0171870535
-0.0242575372
-0.0330637392
-0.0445021497
-0.0594853438
-0.0789419812
-0.1038168067
-0.1359627139
-0.1732193638
-0.2010001096
-0.2067136733
-0.1810008088
-0.1177343013
-0.0140189679
0.1298083429
0.3101787508
0.5202913442
0.7474822714
0.9531869658
1.0959756376
1.1502052273
1.1062292960
0.9703980256
0.7648995201
0.5260662626
0.2888704616
0.0790490578
-0.0869917392
-0.2021758722
-0.2647089145
-0.2797537790
-0.2623791752
-0.2255003027
-0.1796623431
-0.1330404599
-0.0914397987
-0.0582954868
-0.0346726338
-0.0192631942
-0.0086792739
-0.0010583524
0.0045138636
0.0088366715
0.0125943718
0.0163562693
0.0205766722
0.0255948922
0.0316352452
0.0388069971
0.0471027162
0.0563979520
0.0664552247
0.0773128621
0.0891675324
0.1020458632
0.1159535916
0.1308755639
0.1467757362
0.1635971738
0.1812620517
0.1996716542
0.2187063751
0.2382257177
0.2580682947
0.2780518284
0.2979991933
0.3178222533
0.3372277369
0.3559096765
0.3735884315
0.3900106879
0.4049494581
0.4182040816
0.4296002785
0.4389922874
0.4462635653
0.4513240940
0.4541101147
0.4545832824
0.4527309219
0.4485666701
0.4421304905
0.4334886715
0.4226168848
0.4096416462
0.3948615832
0.3785615315
0.3610125347
0.3424718438
0.3231829182
0.3033754247
0.2832652381
0.2630544412
0.2429313243
0.2230703859
0.2036323320
0.1847640767
0.1665987418
0.1492556102
0.1328377390
0.1174308224
0.1031064777
0.0899225299
0.0779267600
0.0671630461
0.0575737832
0.0490829005
0.0416164530
0.0351026214
0.0294717122
0.0246561575
0.0205905151
0.0172114685
0.0144578271
0.0122705257
0.0105926251
0.0093693117
0.0085478975
0.0080778204
0.0079106439
0.0080000573
0.0083018754
0.0087740390
0.0093766369
0.0100734425
0.0108329006
0.0116258164
0.0124276662
0.0132500822
0.0140883824
0.0149296750
0.0157629813
0.0165792355
0.0173712846
0.0181338888
0.0188637213
0.0195593681
0.0202213283
0.0208520139
0.0214557500
0.0220387744
0.0226092381
0.0231772051
0.0237546523
0.0243554695
0.0249954596
0.0256923383
0.0264657346
0.0273371862
0.0283207106
0.0293931620
0.0306775485
0.0323224975
0.0344708114
0.0372594665
0.0408196142
0.0452765800
0.0507498641
0.0573531411
0.0651942601
0.0743752449
0.0849922936
0.0971357789
0.1108902480
0.1263396705
0.1437315206
0.1626964355
0.1826050576
0.2028631128
0.2229114102
0.2422258422
0.2603173845
0.2767320960
0.2910511176
0.3028904500
0.3119007234
0.3177675967
0.3202118092
0.3189889733
0.3138894263
0.3048089572
0.2922468145
0.2769300485
0.2595334371
0.2406786999
0.2209344988
0.2008164373
0.1807870612
0.1612558583
0.1425792581
0.1250606325
0.1089502950
0.0944455014
0.0816904494
0.0706915939
0.0612429635
0.0532823063
0.0465008552
0.0403136797
0.0338600063
0.0260036277
0.0153322730
0.0001575058
-0.0214145343
-0.0494720300
-0.0809673415
-0.1109464750
-0.1326214558
-0.1373703280
-0.1149108892
-0.0574255353
0.0444773232
0.1942148496
0.3861111017
0.6053970317
0.8282104859
1.0228698533
1.1518921394
1.1891004160
1.1260838339
0.9721977648
0.7545638024
0.5138564532
0.2807694292
0.0776885313
-0.0806126981
-0.1871839010
-0.2428977197
-0.2555280898
-0.2340219697
-0.1923467971
-0.1426281653
-0.0939320416
-0.0522647672
-0.0205730573
0.0012559991
0.0159186485
0.0256676695
0.0321109736
0.0366023960
0.0402357917
0.0438450362
0.0480040248
0.0530266732
0.0589669170
0.0656187122
0.0727616036
0.0806884215
0.0894767194
0.0991767499
0.1098270675
0.1214525297
0.1340638656
0.1476576759
0.1622164329
0.1777084807
0.1940881377
0.2114194522
0.2296351578
0.2485083710
0.2678173341
0.2873454154
0.3068811089
0.3262180345
0.3451549379
0.3634956907
0.3810492903
0.3976298601
0.4130566491
0.4271540324
0.4397515107
0.4506837108
0.4597903851
0.4669164117
0.4719107774
0.4746243265
0.4749034233
0.4723282713
0.4669423905
0.4590307262
0.4488675761
0.4367164626
0.4228301336
0.4074505615
0.3908089441
0.3731257039
0.3546104888
0.3354621713
0.3158688492
0.2960078451
0.2760457068
0.2561382071
0.2364303436
0.2170563391
0.1981396414
0.1797929232
0.1621180824
0.1452062417
0.1291377490
0.1139827929
0.0998030165
0.0866497914
0.0745637148
0.0635746086
0.0536960091
0.0448781461
0.0370408766
0.0301070978
0.0240030469
0.0186583007
0.0140057761
0.0099817297
0.0065257582
0.0035807978
0.0010931248
-0.0009876446
-0.0027085547
-0.0041133094
-0.0052422732
-0.0061324706
-0.0068175861
-0.0073279645
-0.0076906108
-0.0079291899
-0.0080640900
-0.0081126161
-0.0080887991
-0.0080033298
-0.0078636484
-0.0076744702
-0.0074262913
-0.0071238506
-0.0067846766
-0.0064229870
-0.0060496885
-0.0056723766
-0.0052953359
-0.0049195397
-0.0045426507
-0.0041590202
-0.0037596886
-0.0033323852
-0.0028615284
-0.0023282253
-0.0017102723
-0.0009821545
-0.0001150461
0.0009231898
0.0021680012
0.0036550671
0.0053711659
0.0074602091
0.0101154231
0.0135129420
0.0178118072
0.0231539680
0.0296642811
0.0374505108
0.0466033290
0.0571963154
0.0692859569
0.0829116483
0.0980956919
0.1148467078
0.1332719993
0.1529386210
0.1731994716
0.1934466578
0.2131114944
0.2316645045
0.2486154194
0.2635131782
0.2759459286
0.2855410261
0.2919654308
0.2949273703
0.2941749468
0.2894946038
0.2805853681
0.2679025152
0.2522579005
0.2343971988
0.2149998975
0.1946792963
0.1739825075
0.1533904556
0.1333178777
0.1141133233
0.0960591544
0.0793715453
0.0642004828
0.0506297662
0.0386770071
0.0282936296
0.0193648703
0.0116999586
0.0037253224
-0.0062270836
-0.0186726640
-0.0335906662
-0.0504259411
-0.0680875934
-0.0849482106
-0.0988438619
-0.1070740983
-0.1064019522
-0.0930539379
-0.0627200515
-0.0105537707
0.0688279454
0.1813446555
0.3334524369
0.5321106175
0.7611582202
0.9698597231
1.1199602124
1.1862378513
1.1565038799
1.0316249556
0.8315428899
0.5950211765
0.3558045046
0.1393788132
-0.0370287090
-0.1638808114
-0.2342456790
-0.2586065377
-0.2503555633
-0.2210187171
-0.1802559493
-0.1358612111
-0.0937622419
-0.0580205581
-0.0308314536
-0.0125239992
-0.0010239447
0.0067970617
0.0121355666
0.0159667585
0.0191067747
0.0222127015
0.0257825736
0.0301553747
0.0355110371
0.0418704419
0.0490954191
0.0569295799
0.0655390950
0.0750646623
0.0855504940
0.0970242772
0.1094965237
0.1229600261
0.1373898546
0.1527433573
0.1689601600
0.1859621665
0.2036535582
0.2219212890
0.2407369507
0.2599429167
0.2792708681
0.2984652350
0.3172831965
0.3354946810
0.3528823657
0.3692416770
0.3843807903
0.3981206301
0.4102948700
0.4207499326
0.4293449896
0.4359519618
0.4404555189
0.4427528487
0.4427518959
0.4403446521
0.4351799549
0.4273985771
0.4172835359
0.4051065726
0.3911282341
0.3755978820
0.3587536917
0.3408226533
0.3220205709
0.3025520630
0.2826105622
0.2623783156
0.2420263844
0.2217146441
0.2015917845
0.1817953097
0.1624515381
0.1436756021
0.1255714488
0.1082318392
0.0917383487
0.0761613670
0.0615602035
0.0479840211
0.0354713900
0.0240497009
0.0137336001
0.0044850273
-0.0037748514
-0.0111229961
-0.0176332046
-0.0233761125
-0.0284191933
-0.0328267583
-0.0366599566
-0.0399767751
-0.0428320385
-0.0452774093
-0.0473613880
-0.0491293127
-0.0506233594
-0.0518825419
-0.0529427119
-0.0538365588
-0.0545936099
-0.0552402302
-0.0557996227
-0.0562917676
-0.0567327950
-0.0571352364
-0.0575084539
-0.0578586472
-0.0581819879
-0.0584528713
-0.0586892389
-0.0589114016
-0.0591355656
-0.0593738325
-0.0596341987
-0.0599205561
-0.0602326918
-0.0605662878
-0.0609129216
-0.0612600657
-0.0615910880
-0.0618852513
-0.0621177139
-0.0622595292
-0.0622776455
-0.0621349068
-0.0617900518
-0.0611977149
-0.0603085318
-0.0590704395
-0.0574540072
-0.0554254707
-0.0527431600
-0.0491778361
-0.0445341103
-0.0386504448
-0.0313991522
-0.0226863957
-0.0124521890
-0.0006703963
0.0126512675
0.0274712370
0.0437140963
0.0612705788
0.0800356498
0.0999045706
0.1201636625
0.1400743029
0.1589736746
0.1762747651
0.1914663669
0.2041130777
0.2138553001
0.2204092890
0.2235678345
0.2232001046
0.2192510874
0.2117415766
0.2007591818
0.1865037978
0.1696595542
0.1509469780
0.1310202228
0.1104670686
0.0898089221
0.0695008164
0.0499314112
0.0314229927
0.0142314737
-0.0014536066
-0.0155090823
-0.0278781611
-0.0385704241
-0.0475055214
-0.0547689536
-0.0612640121
-0.0679370212
-0.0757413429
-0.0856373596
-0.0985921636
-0.1155795990
-0.1375805389
-0.1655843429
-0.1990715086
-0.2302686206
-0.2499468437
-0.2495725784
-0.2213074612
-0.1580083638
-0.0532273941
0.1000131453
0.2998287420
0.5201795059
0.7340473712
0.9155329832
1.0398556980
1.0833535826
1.0242007228
0.8690337284
0.6559484748
0.4190708849
0.1863965822
-0.0202091089
-0.1850112480
-0.2982987737
-0.3609358537
-0.3819201372
-0.3705937473
-0.3363701288
-0.2887337386
-0.2372402554
-0.1915079433
-0.1571879932
-0.1325215214
-0.1154871812
-0.1042014644
-0.0969187009
-0.0920310590
-0.0880685454
-0.0840465298
-0.0797909741
-0.0751636671
-0.0700432347
-0.0643251407
-0.0579216858
-0.0507620085
-0.0427920845
-0.0339747270
-0.0242894153
-0.0136381226
-0.0019061827
0.0108605118
0.0246054124
0.0392628891
0.0547582301
0.0710076418
0.0879182491
0.1053880954
0.1233061420
0.1415522690
0.1599972744
0.1785028749
0.1969217053
0.2150973188
0.2328641869
0.2500476996
0.2664641650
0.2819208098
0.2962157786
0.3091381349
0.3204678600
0.3299758539
0.3374239348
0.3425913825
0.3454576456
0.3460571012
0.3444320368
0.3406391292
0.3347494342
0.3268482696
0.3170352588
0.3054244133
0.2921441340
0.2773372114
0.2611608256
0.2437865461
0.2254003321
0.2062025319
0.1864078839
0.1662455157
0.1459589443
0.1258060766
0.1060589204
0.0868679569
0.0682823712
0.0503933407
0.0332784762
0.0170018227
0.0016140028
-0.0128420685
-0.0263292766
-0.0388235379
-0.0503143349
-0.0608047166
-0.0703112979
-0.0788642600
-0.0865073500
-0.0932978817
-0.0993067344
-0.1046183541
-0.1093294223
-0.1134756202
-0.1170860822
-0.1202137247
-0.1229080457
-0.1252151252
-0.1271776247
-0.1288347878
-0.1302224398
-0.1313729877
-0.1323154203
-0.1330753083
-0.1336748042
-0.1341326799
-0.1344662740
-0.1346924325
-0.1348248176
-0.1348736735
-0.1348458221
-0.1347445718
-0.1345654692
-0.1342508764
-0.1338162276
-0.1332990882
-0.1327307840
-0.1321364015
-0.1315347878
-0.1309385504
-0.1303540578
-0.1297814387
-0.1292145826
-0.1286411396
-0.1280425204
-0.1273938962
-0.1266641989
-0.1258161210
-0.1248061155
-0.1235843961
-0.1220949659
-0.1202776104
-0.1180691928
-0.1154006443
-0.1121966570
-0.1083756835
-0.1038499370
-0.0985562852
-0.0924090379
-0.0851299803
-0.0764890254
-0.0663213675
-0.0545274828
-0.0410731291
-0.0259893458
-0.0093724541
0.0086159433
0.0277489618
0.0477344354
0.0682149161
0.0887676746
0.1089124499
0.1281790446
0.1459013376
0.1614465691
0.1742873968
0.1840056944
0.1902957297
0.1929578969
0.1918979687
0.1871270932
0.1787579109
0.1669845716
0.1523172785
0.1353332532
0.1165903309
0.0966269614
0.0759622085
0.0550957500
0.0345078782
0.0146594994
-0.0040162366
-0.0215102109
-0.0375501803
-0.0517512549
-0.0639204577
-0.0740567240
-0.0823509017
-0.0891857512
-0.0951359456
-0.1009680917
-0.1076438009
-0.1163229073
-0.1283579267
-0.1454646322
-0.1687902338
-0.1972388103
-0.2278513664
-0.2558190990
-0.2744833965
-0.2753358396
-0.2480285799
-0.1849039296
-0.0788817719
0.0732694632
0.2661999882
0.4859786580
0.7100929697
0.9074490629
1.0390181717
1.0776105562
1.0210648079
0.8787344905
0.6706065486
0.4273013083
0.1893156589
-0.0161960559
-0.1789356415
-0.2927507493
-0.3569103052
-0.3761045098
-0.3604026665
-0.3218787995
-0.2722699512
-0.2215118786
-0.1765664011
-0.1414214004
-0.1170908208
-0.1016146687
-0.0910238881
-0.0837385044
-0.0785326437
-0.0743585120
-0.0704055399
-0.0661003828
-0.0611069205
-0.0553262571
-0.0488963978
-0.0418649812
-0.0340468956
-0.0253726072
-0.0157865368
-0.0052472039
0.0062729730
0.0187877137
0.0322968767
0.0467864588
0.0622285953
0.0785815600
0.0957897652
0.1138619167
0.1328027273
0.1523723668
0.1723310903
0.1924471690
0.2124968913
0.2322645618
0.2515425020
0.2701310498
0.2878385599
0.3044814036
0.3198839686
0.3338786597
0.3463058978
0.3570141207
0.3658597826
0.3727070956
0.3774275458
0.3799005037
0.3800133563
0.3775900745
0.3725084424
0.3650024530
0.3553148514
0.3436811078
0.3303294175
0.3154807005
0.2993486023
0.2821394929
0.2640524677
0.2452793469
0.2260046758
0.2064057247
0.1866524888
0.1669076884
0.1473267689
0.1280579005
0.1092419787
0.0910126237
0.0734961809
0.0568117207
0.0410709581
0.0263780737
0.0128299212
0.0005021144
-0.0106381871
-0.0206615114
-0.0296359701
-0.0376279355
-0.0447020414
-0.0509211822
-0.0563465138
-0.0610374529
-0.0650516775
-0.0684451265
-0.0712720000
-0.0735847592
-0.0754341263
-0.0768690845
-0.0779368784
-0.0786830133
-0.0791512558
-0.0793836336
-0.0794204354
-0.0793002110
-0.0790597712
-0.0787335623
-0.0783520156
-0.0779316850
-0.0774498849
-0.0769191650
-0.0763544360
-0.0757682522
-0.0751709455
-0.0745707156
-0.0739736299
-0.0733836238
-0.0728025007
-0.0722299315
-0.0716634552
-0.0710984788
-0.0705282770
-0.0699439922
-0.0693346351
-0.0686870840
-0.0679860849
-0.0672142521
-0.0663520674
-0.0653778807
-0.0642679096
-0.0629962398
-0.0615356287
-0.0598789162
-0.0580777047
-0.0559582112
-0.0533232229
-0.0499937521
-0.0458090359
-0.0406265369
-0.0343219425
-0.0267891652
-0.0179403427
-0.0077058377
0.0039657619
0.0171076433
0.0317347685
0.0478438745
0.0654134731
0.0844811852
0.1050563547
0.1263786639
0.1476790676
0.1682645119
0.1875179344
0.2048982637
0.2199404200
0.2322559839
0.2415356236
0.2475468931
0.2501333380
0.2492144953
0.2447858782
0.2369188248
0.2257605596
0.2115243212
0.1946967429
0.1760412561
0.1562586749
0.1359724876
0.1157288569
0.0959966195
0.0771672862
0.0595550421
0.0433967465
0.0288519329
0.0160028087
0.0048542557
-0.0046661701
-0.0127082386
-0.0194990455
-0.0251001231
-0.0304926318
-0.0372297591
-0.0466642494
-0.0599474775
-0.0780294480
-0.1016587954
-0.1314504019
-0.1643455834
-0.1917817734
-0.2052215673
-0.1965339629
-0.1579943601
-0.0822845611
0.0375482563
0.2073111220
0.4132914830
0.6332660955
0.8428770536
1.0156317889
1.1229030710
1.1340291231
1.0367414086
0.8614218787
0.6410475656
0.4050558310
0.1793447364
-0.0137251431
-0.1567765409
-0.2478497625
-0.2925961702
-0.2982361370
-0.2735690273
-0.2289732009
-0.1764061469
-0.1282910925
-0.0890789361
-0.0590630763
-0.0377871816
-0.0239977036
-0.0156438764
-0.0099167901
-0.0050120721
-0.0005002814
0.0040396282
0.0089371312
0.0144301301
0.0206649557
0.0276963668
0.0354962221
0.0441124983
0.0536324780
0.0641137158
0.0755957548
0.0881010443
0.1016349427
0.1161857171
0.1317245439
0.1482055084
0.1655656048
0.1837247365
0.2025857157
0.2220548314
0.2421093550
0.2625131442
0.2830005340
0.3033175726
0.3232220208
0.3424833524
0.3608827542
0.3782131256
0.3942790790
0.4088969397
0.4218947458
0.4331122484
0.4424009113
0.4496242099
0.4546596027
0.4573973034
0.4577392443
0.4554736366
0.4503592285
0.4426618537
0.4326617343
0.4206283168
0.4068202864
0.3914855670
0.3748613213
0.3571739506
0.3386390951
0.3194616335
0.2998356834
0.2799446011
0.2599609814
0.2400466580
0.2203527034
0.2010194287
0.1821763836
0.1639423567
0.1464253754
0.1297227055
0.1139207187
0.0990938727
0.0853052720
0.0726072552
0.0610413996
0.0506380648
0.0413823822
0.0331971917
0.0260024948
0.0197215011
0.0142806287
0.0096095035
0.0056409597
0.0023110399
-0.0004410053
-0.0026727171
-0.0044384285
-0.0057892642
-0.0067731409
-0.0074347670
-0.0078156427
-0.0079540600
-0.0078851027
-0.0076406465
-0.0072493588
-0.0067367893
-0.0061261774
-0.0054380682
-0.0046898045
-0.0038955211
-0.0030661444
-0.0022093184
-0.0013250935
-0.0004038570
0.0005365394
0.0014783614
0.0024074071
0.0033130074
0.0041880256
0.0050288576
0.0058354319
0.0066112097
0.0073631847
0.0081018832
0.0088413641
0.0095992187
0.0103965713
0.0112580783
0.0122119291
0.0132898455
0.0145273535
0.0159666189
0.0176043853
0.0195195016
0.0219326036
0.0250443809
0.0290340598
0.0340594038
0.0402567131
0.0477408251
0.0566051142
0.0669214915
0.0787404054
0.0920908410
0.1069803204
0.1233949029
0.1413385233
0.1608212698
0.1811944496
0.2017599786
0.2218777758
0.2409657633
0.2584998661
0.2740140125
0.2871001337
0.2974077995
0.3046397467
0.3085532855
0.3089636559
0.3057441014
0.2988258682
0.2883012298
0.2747398729
0.2588010219
0.2411010800
0.2222136282
0.2026694256
0.1829564090
0.1635196934
0.1447615717
0.1270415146
0.1106761711
0.0959355972
0.0827071291
0.0710981425
0.0612956594
0.0532360445
0.0466050050
0.0408375909
0.0351181945
0.0283808846
0.0193142423
0.0063602671
-0.0120180073
-0.0367258210
-0.0667606709
-0.0986974450
-0.1266883964
-0.1424631430
-0.1369071856
-0.1000909859
-0.0217707224
0.1022780889
0.2701110986
0.4736151242
0.6993385987
0.9181408417
1.0869830936
1.1760208844
1.1701593753
1.0690533590
0.8871756547
0.6566676500
0.4148184958
0.1904859288
0.0035524538
-0.1350782500
-0.2218422566
-0.2572719516
-0.2547976205
-0.2273432494
-0.1857934010
-0.1389933738
-0.0937490844
-0.0548269959
-0.0249541174
-0.0047486463
0.0084511411
0.0171489447
0.0230194850
0.0274230020
0.0314052545
0.0356975203
0.0407165963
0.0465647986
0.0530299621
0.0599979581
0.0677308222
0.0762912991
0.0857300942
0.0960861469
0.1073881663
0.1196545866
0.1328920668
0.1470954260
0.1622476437
0.1783494130
0.1955361976
0.2136535731
0.2324909799
0.2518414178
0.2715014461
0.2912711836
0.3109543088
0.3303580596
0.3492932335
0.3675741874
0.3850188380
0.4014486613
0.4166886928
0.4305675277
0.4429173207
0.4535737859
0.4623761970
0.4691673874
0.4737937566
0.4761054453
0.4759563026
0.4731105968
0.4675977477
0.4596520489
0.4495023147
0.4373723659
0.4234808169
0.4080407568
0.3912597451
0.3733398119
0.3544774578
0.3348636537
0.3146838410
0.2941179317
0.2733403080
0.2525198229
0.2318197995
0.2113980317
0.1914067836
0.1719927898
0.1532972556
0.1354558564
0.1185987383
0.1028504919
0.0883275930
0.0750546845
0.0629652181
0.0519950490
0.0420813070
0.0331623956
0.0251779928
0.0180690508
0.0117777957
0.0062477280
0.0014236223
-0.0027484725
-0.0063212335
-0.0093460636
-0.0118730912
-0.0139511710
-0.0156278833
-0.0169495341
-0.0179611554
-0.0187065049
-0.0192280663
-0.0195670488
-0.0197633878
-0.0198557443
-0.0198762091
-0.0198146864
-0.0196780239
-0.0194783831
-0.0192265152
-0.0189317606
-0.0186020817
-0.0182446831
-0.0178659655
-0.0174709418
-0.0170632145
-0.0166449755
-0.0162170060
-0.0157786768
-0.0153279480
-0.0148613693
-0.0143740796
-0.0138598074
-0.0133108706
-0.0127181765
-0.0120712219
-0.0113580929
-0.0105811669
-0.0097167678
-0.0086852900
-0.0074010631
-0.0057727934
-0.0037034786
-0.0010906497
0.0021736079
0.0062026538
0.0111152934
0.0170357772
0.0240938011
0.0324245066
0.0421684804
0.0534717545
0.0665035913
0.0815299473
0.0982933017
0.1163987028
0.1354455365
0.1550275261
0.1747327325
0.1941435540
0.2128367265
0.2303833233
0.2463487552
0.2602927705
0.2717694552
0.2803272238
0.2855082112
0.2868478726
0.2838922601
0.2767937222
0.2661866965
0.2526818353
0.2368569231
0.2192570746
0.2003941248
0.1807465784
0.1607596103
0.1408450647
0.1213814561
0.1027139686
0.0851544560
0.0689814421
0.0544401206
0.0417384085
0.0306806007
0.0211922171
0.0132183710
0.0064087008
0.0001173704
-0.0065969312
-0.0149709835
-0.0265364438
-0.0430386499
-0.0656913333
-0.0941554757
-0.1259066443
-0.1561998487
-0.1780695409
-0.1823296151
-0.1597907499
-0.1017072120
0.0019473674
0.1531515954
0.3455191094
0.5642985765
0.7863736941
0.9806345149
1.1105424954
1.1503021312
1.0911223472
0.9412336012
0.7258878834
0.4848524272
0.2493360154
0.0412961291
-0.1241723056
-0.2393328355
-0.3038078962
-0.3243306873
-0.3091940283
-0.2712753397
-0.2229685536
-0.1737452627
-0.1301550256
-0.0958248879
-0.0714593079
-0.0549946414
-0.0439380749
-0.0366804827
-0.0318573924
-0.0283309155
-0.0251897470
-0.0217491661
-0.0175510352
-0.0123638009
-0.0061824934
0.0007712733
0.0082062239
0.0164210745
0.0255227187
0.0355607632
0.0465691918
0.0585666520
0.0715560178
0.0855243187
0.1004427397
0.1162666217
0.1329354609
0.1503729092
0.1684930471
0.1872822976
0.2065609052
0.2260927599
0.2456488490
0.2650072568
0.2839531646
0.3022788511
0.3197836919
0.3362741596
0.3515638240
0.3654733522
0.3778305081
0.3884701529
0.3972342448
0.4039718390
0.4085390882
0.4107992548
0.4105196513
0.4075396545
0.4020530561
0.3942595308
0.3843559234
0.3725364039
0.3589928663
0.3439144992
0.3274876612
0.3098958812
0.2913198583
0.2719374618
0.2519237311
0.2314508758
0.2106882759
0.1898024813
0.1689572125
0.1483133597
0.1280289837
0.1082593153
0.0891567555
0.0708708757
0.0535484173
0.0373332915
0.0223568888
0.0086144225
-0.0039611940
-0.0154307570
-0.0258539857
-0.0352895223
-0.0437949319
-0.0514267029
-0.0582402463
-0.0642898962
-0.0696289100
-0.0743094676
-0.0783826723
-0.0818985502
-0.0849060504
-0.0874530450
-0.0895863291
-0.0913516209
-0.0927935613
-0.0939557146
-0.0948805677
-0.0956095308
-0.0961829368
-0.0966400418
-0.0970190248
-0.0973523022
-0.0976151343
-0.0978084660
-0.0979468609
-0.0980429194
-0.0981072788
-0.0981487164
-0.0981746507
-0.0981907576
-0.0982007499
-0.0982063777
-0.0982074276
-0.0982017234
-0.0981851257
-0.0981515321
-0.0980928770
-0.0979991318
-0.0978583046
-0.0976564408
-0.0973776223
-0.0970039682
-0.0965156345
-0.0958908138
-0.0951057360
-0.0941380230
-0.0930662856
-0.0917781170
-0.0900738740
-0.0877711261
-0.0847046551
-0.0807264556
-0.0757057345
-0.0695289114
-0.0620996184
-0.0533387001
-0.0431842136
-0.0315914287
-0.0185328275
-0.0039981048
0.0120058322
0.0294548635
0.0483371141
0.0683879047
0.0889365612
0.1093417071
0.1290115600
0.1474039320
0.1640262289
0.1784354510
0.1902381924
0.1990907935
0.2046998139
0.2068215687
0.2052619669
0.1998718181
0.1906544600
0.1781614409
0.1630191387
0.1458183996
0.1271142444
0.1074258647
0.0872366230
0.0669940526
0.0471098578
0.0279599136
0.0098842659
-0.0068128682
-0.0218631013
-0.0339282604
-0.0422037273
-0.0485344323
-0.0545149911
-0.0614475982
-0.0703420263
-0.0819156270
-0.0965933151
-0.1145075138
-0.1354982043
-0.1591129466
-0.1846068791
-0.2109427186
-0.2367907607
-0.2605288794
-0.2778596790
-0.2743314967
-0.2367783413
-0.1572791168
-0.0331555987
0.1330275659
0.3334628579
0.5551275106
0.7760998581
0.9546162250
1.0570341743
1.0655314862
0.9781061585
0.8085514058
0.5845601016
0.3419839845
0.1110788590
-0.0866384634
-0.2383895296
-0.3400267878
-0.3896590147
-0.3969119991
-0.3755517102
-0.3372153995
-0.2914119538
-0.2455218539
-0.2047968541
-0.1723599712
-0.1492054842
-0.1340015693
-0.1232501736
-0.1155618718
-0.1100384108
-0.1058879289
-0.1024249555
-0.0990704117
-0.0953516097
-0.0909022531
-0.0854624368
-0.0788786472
-0.0711037619
-0.0621970499
-0.0523244361
-0.0417533317
-0.0303863719
-0.0180315879
-0.0046769726
0.0096704257
0.0249845033
0.0412201007
0.0583130031
0.0761799398
0.0947185849
0.1138075568
0.1333064183
0.1530556768
0.1728767841
0.1925721363
0.2119250742
0.2307012252
0.2487549791
0.2658702118
0.2817754238
0.2962284328
0.3090163732
0.3199556970
0.3288921729
0.3357012619
0.3402902642
0.3425968364
0.3425879554
0.3402599153
0.3356383273
0.3287781269
0.3197638760
0.3087098765
0.2956816052
0.2808056929
0.2643572238
0.2465997742
0.2277845194
0.2081502340
0.1879232913
0.1673176639
0.1465349235
0.1257642408
0.1051823855
0.0849537265
0.0652302317
0.0461514680
0.0278446015
0.0104243973
-0.0060074888
-0.0213672138
-0.0355760013
-0.0485647999
-0.0603811863
-0.0710854227
-0.0807372495
-0.0893958850
-0.0971200252
-0.1039678443
-0.1099969943
-0.1152646051
-0.1198272846
-0.1237411186
-0.1270616709
-0.1298439831
-0.1321425749
-0.1340114438
-0.1355040652
-0.1366733925
-0.1375718572
-0.1382513683
-0.1387633132
-0.1391585569
-0.1394874426
-0.1397988248
-0.1401168177
-0.1404146594
-0.1406979702
-0.1409740763
-0.1412487299
-0.1415261101
-0.1418090654
-0.1420993880
-0.1423973618
-0.1427016966
-0.1430095279
-0.1433164169
-0.1436163506
-0.1439017417
-0.1441634286
-0.1443906755
-0.1445711723
-0.1446910345
-0.1447348037
-0.1446854469
-0.1445243569
-0.1442313523
-0.1437846774
-0.1431610023
-0.1423459532
-0.1415501724
-0.1406813920
-0.1395081050
-0.1378204395
-0.1354301586
-0.1321706604
-0.1278969779
-0.1224857792
-0.1158353672
-0.1078656801
-0.0985182908
-0.0877564072
-0.0755648725
-0.0619501644
-0.0469403959
-0.0305853150
-0.0129563046
0.0058536174
0.0257297982
0.0465015442
0.0676300736
0.0884131084
0.1082095809
0.1264417931
0.1425956447
0.1562230327
0.1669409067
0.1744296131
0.1784328678
0.1787577561
0.1752692781
0.1680145352
0.1574407443
0.1440441422
0.1283200945
0.1107630951
0.0918667667
0.0721238604
0.0520262560
0.0320649615
0.0127301139
-0.0054962230
-0.0225816765
-0.0382865633
-0.0522337656
-0.0642296086
-0.0742638612
-0.0825097353
-0.0893238862
-0.0952463287
-0.1009993999
-0.1074880819
-0.1158007827
-0.1272093538
-0.1433160648
-0.1655161876
-0.1932920411
-0.2241874622
-0.2538140878
-0.2758513551
-0.2820465010
-0.2622146034
-0.2085668193
-0.1134550895
0.0280741114
0.2124581287
0.4276181270
0.6529590907
0.8593698236
1.0092745050
1.0696943632
1.0356050729
0.9143816957
0.7228678870
0.4873757399
0.2436835008
0.0282228598
-0.1462191202
-0.2726284070
-0.3490884962
-0.3788832365
-0.3704968910
-0.3364288342
-0.2884200653
-0.2369958591
-0.1898348991
-0.1516885096
-0.1243806557
-0.1068079433
-0.0951362455
-0.0868336571
-0.0808268567
-0.0760444226
-0.0716441135
-0.0670128681
-0.0617668054
-0.0557512246
-0.0490406052
-0.0417688313
-0.0337511660
-0.0249101117
-0.0151863891
-0.0045347075
0.0070761705
0.0196634292
0.0332301997
0.0477655598
0.0632445343
0.0796280947
0.0968631592
0.1149204317
0.1338565465
0.1534572394
0.1734797149
0.1936893439
0.2138596633
0.2337723762
0.2532173517
0.2719926251
0.2899043978
0.3067670374
0.3224030775
0.3366432179
0.3493263245
0.3602993756
0.3694163319
0.3765381646
0.3815339629
0.3842809821
0.3846646436
0.3825251212
0.3776953707
0.3703942090
0.3608662534
0.3493488422
0.3360720330
0.3212586032
0.3051240494
0.2878765879
0.2697171543
0.2508394038
0.2314297109
0.2116671697
0.1917235938
0.1717635163
0.1519441895
0.1324155856
0.1133203959
0.0947940314
0.0769646405
0.0599535745
0.0438754279
0.0288375409
0.0149399733
0.0022641940
-0.0092149264
-0.0195665312
-0.0288572935
-0.0371521445
-0.0445142734
-0.0510051273
-0.0566844117
-0.0616100898
-0.0658383829
-0.0694237703
-0.0724189895
-0.0748750359
-0.0768411630
-0.0783648821
-0.0794919628
-0.0802664326
-0.0807305771
-0.0809249398
-0.0808883224
-0.0806577973
-0.0802691131
-0.0797567803
-0.0791535973
-0.0784789600
-0.0777129363
-0.0768707242
-0.0759699012
-0.0750261253
-0.0740531028
-0.0730624097
-0.0720634862
-0.0710636364
-0.0700680285
-0.0690796946
-0.0680995310
-0.0671262979
-0.0661566195
-0.0651849840
-0.0642037439
-0.0632031153
-0.0621711787
-0.0610938783
-0.0599550226
-0.0587362839
-0.0574171829
-0.0559744497
-0.0543818031
-0.0526364969
-0.0507760039
-0.0486132557
-0.0459494041
-0.0426037071
-0.0384135296
-0.0332343431
-0.0269397255
-0.0194213618
-0.0105890431
-0.0003706677
0.0112877600
0.0244221286
0.0390502202
0.0551717103
0.0727681675
0.0919081127
0.1125260771
0.1338334172
0.1550698774
0.1755513974
0.1946701118
0.2118943343
0.2267676978
0.2389087282
0.2480120406
0.2538484454
0.2562649481
0.2551847491
0.2506072483
0.2426081992
0.2313397577
0.2170231680
0.2002052839
0.1816501962
0.1620490672
0.1420151183
0.1220836297
0.1027119406
0.0842794492
0.0670876126
0.0513599469
0.0372420273
0.0248014878
0.0140280214
0.0048333802
-0.0029486249
-0.0095558856
-0.0150510516
-0.0206302884
-0.0278481192
-0.0380420779
-0.0523327094
-0.0716235692
-0.0966012241
-0.1277233877
-0.1606787010
-0.1866239624
-0.1970087423
-0.1837204617
-0.1390843916
-0.0558636533
0.0729916063
0.2510723166
0.4612301052
0.6804942856
0.8838840733
1.0444085854
1.1330668406
1.1195713149
1.0012813790
0.8120277745
0.5846165987
0.3480756459
0.1276568835
-0.0551683723
-0.1856542878
-0.2650215156
-0.2994218338
-0.2966258830
-0.2660376450
-0.2186945662
-0.1672673381
-0.1225925891
-0.0868428815
-0.0602409245
-0.0421263080
-0.0309555028
-0.0243018600
-0.0192642187
-0.0148558662
-0.0106073354
-0.0061054468
-0.0010370883
0.0048107846
0.0115511489
0.0191969141
0.0277355392
0.0372674133
0.0478503637
0.0595232378
0.0723079418
0.0862094406
0.1012157576
0.1172979750
0.1344102338
0.1524897334
0.1714567322
0.1912145470
0.2116609969
0.2327809519
0.2543536703
0.2761059048
0.2977749131
0.3191084585
0.3398648095
0.3598127399
0.3787315290
0.3964109612
0.4126513265
0.4272634200
0.4400685422
0.4508985197
0.4596007790
0.4660449873
0.4701129639
0.4716970331
0.4706285582
0.4665796208
0.4597727164
0.4504936680
0.4390181414
0.4256114677
0.4105285977
0.3940141022
0.3763021722
0.3576166181
0.3381708708
0.3181679807
0.2978006184
0.2772510742
0.2566912585
0.2362827017
0.2161765539
0.1965135852
0.1774241859
0.1590283658
0.1414357505
0.1247435673
0.1090334538
0.0943758384
0.0808307694
0.0684479149
0.0572662398
0.0472784007
0.0384067033
0.0305692974
0.0236875761
0.0176861764
0.0124929788
0.0080391074
0.0042589299
0.0010900577
-0.0015266543
-0.0036471075
-0.0053239598
-0.0066066252
-0.0075412744
-0.0081708343
-0.0085349883
-0.0086701761
-0.0086095939
-0.0083831941
-0.0080177676
-0.0075370992
-0.0069617727
-0.0063091282
-0.0055932623
-0.0048250281
-0.0040120349
-0.0031583091
-0.0022511738
-0.0012996810
-0.0003232834
0.0006623382
0.0016452752
0.0026173911
0.0035743216
0.0045154744
0.0054440291
0.0063669379
0.0072949245
0.0082424852
0.0092278882
0.0102731736
0.0114041540
0.0126504138
0.0140453097
0.0156264344
0.0174366648
0.0194823391
0.0218083824
0.0246393430
0.0281836104
0.0326258569
0.0381270372
0.0448243891
0.0528314329
0.0622379717
0.0731100915
0.0854901608
0.0993968310
0.1148250362
0.1317459931
0.1501361113
0.1700198352
0.1907477595
0.2115899952
0.2318806441
0.2510177990
0.2684635439
0.2837439536
0.2964490937
0.3062326812
0.3128111750
0.3159647387
0.3155375264
0.3114376834
0.3036373460
0.2921941714
0.2776764996
0.2608337278
0.2423520060
0.2228541597
0.2028996892
0.1829847697
0.1635422509
0.1449416578
0.1274891900
0.1114277220
0.0969368030
0.0841326572
0.0730681836
0.0638043886
0.0561509033
0.0495354606
0.0432601461
0.0365039519
0.0283228326
0.0176498791
0.0032951483
-0.0160543957
-0.0418340479
-0.0736232479
-0.1051034797
-0.1285095130
-0.1356217301
-0.1177661256
-0.0658143067
0.0286507954
0.1689955097
0.3524924327
0.5670678814
0.7911393750
0.9936156355
1.1343844128
1.1834600867
1.1365005459
1.0014634336
0.7976174244
0.5555422249
0.3163493227
0.1087298276
-0.0558588877
-0.1707973857
-0.2352707387
-0.2542690893
-0.2383721554
-0.1995283117
-0.1502111094
-0.1005913937
-0.0575577216
-0.0247163616
-0.0023912933
0.0122108126
0.0217588676
0.0279113434
0.0321416490
0.0356037958
0.0391323971
0.0432426688
0.0481304287
0.0536720970
0.0597881358
0.0666979203
0.0744706013
0.0831643177
0.0928262037
0.1034918056
0.1151825874
0.1279079974
0.1416664785
0.1564454691
0.1724030480
0.1896268723
0.2078773254
0.2269195978
0.2465254633
0.2664732788
0.2865479849
0.3065411054
0.3262507474
0.3454816015
0.3640449416
0.3817586247
0.3984470917
0.4139413663
0.4280790559
0.4407043510
0.4516680258
0.4608274376
0.4680465270
0.4731958181
0.4761527791
0.4768036139
0.4750419044
0.4707599861
0.4637952036
0.4543390166
0.4426791803
0.4290919786
0.4138421565
0.3971829024
0.3793559299
0.3605914834
0.3411083377
0.3211137984
0.3008037017
0.2803624146
0.2599628344
0.2397663894
0.2199230383
0.2005712706
0.1818381064
0.1638390963
0.1466783217
0.1304483947
0.1152304579
0.1010939594
0.0880953555
0.0762811912
0.0656592268
0.0561540275
0.0476845784
0.0401728624
0.0335438596
0.0277255478
0.0226489024
0.0182478963
0.0144595001
0.0112236819
0.0084834071
0.0061846391
0.0042763386
0.0027104638
0.0014419707
0.0004288126
-0.0003680593
-0.0009846966
-0.0014541532
-0.0018064853
-0.0020687517
-0.0022650136
-0.0024160274
-0.0025371905
-0.0026398086
-0.0027321837
-0.0028196203
-0.0028915501
-0.0029382666
-0.0029759400
-0.0030175315
-0.0030724106
-0.0031464026
-0.0032417951
-0.0033573382
-0.0034882443
-0.0036261880
-0.0037593063
-0.0038721985
-0.0039459264
-0.0039580138
-0.0038824471
-0.0036896749
-0.0033466083
-0.0028166203
-0.0020595468
-0.0010328559
0.0002535793
0.0019386576
0.0042261740
0.0073004575
0.0113263812
0.0164493618
0.0227953603
0.0304708812
0.0395629733
0.0501392292
0.0622477851
0.0759173216
0.0911570629
0.1079599817
0.1264187972
0.1460809149
0.1662763897
0.1863797418
0.2058099563
0.2240304837
0.2405492396
0.2549186046
0.2667354247
0.2756410109
0.2813211396
0.2835060651
0.2819706400
0.2765318399
0.2670434339
0.2540544068
0.2383132164
0.2205101937
0.2012775429
0.1811894195
0.1607620928
0.1404537513
0.1206644571
0.1017361453
0.0839526241
0.0675395752
0.0526645532
0.0394369861
0.0279081751
0.0180618009
0.0096943173
0.0024092794
-0.0044102251
-0.0116134195
-0.0202818388
-0.0317293292
-0.0475018633
-0.0693764644
-0.0982751860
-0.1308177994
-0.1615181264
-0.1835511953
-0.1887532403
-0.1676217021
-0.1103534254
-0.0107168496
0.1359902622
0.3254979274
0.5437739635
0.7670239877
0.9616915444
1.0902849002
1.1279063322
1.0659794003
0.9136678320
0.6978755225
0.4568218880
0.2214626195
0.0159293513
-0.1447020413
-0.2544363725
-0.3133151322
-0.3275248787
-0.3104114975
-0.2736707612
-0.2271940100
-0.1790681518
-0.1355756623
-0.1011945847
-0.0776710583
-0.0622059944
-0.0522409590
-0.0457003271
-0.0409472777
-0.0367837938
-0.0324506625
-0.0276274749
-0.0224056935
-0.0166733967
-0.0102669075
-0.0031173352
0.0048343388
0.0136372607
0.0233307046
0.0339440724
0.0454968940
0.0579990271
0.0714536065
0.0858563989
0.1012592872
0.1178831221
0.1355454870
0.1540180654
0.1730789456
0.1925126214
0.2121099916
0.2316683601
0.2509914360
0.2698893335
0.2881785721
0.3056820762
0.3222291755
0.3376556048
0.3518035041
0.3645214185
0.3756642981
0.3850934985
0.3926767800
0.3982883084
0.4018086546
0.4031247944
0.4021300033
0.3987219994
0.3927552921
0.3842428095
0.3734530444
0.3606495903
0.3460860283
0.3300059262
0.3126428829
0.2942208529
0.2749539633
0.2550463294
0.2346920538
0.2140752261
0.1933699231
0.1727402087
0.1523401338
0.1323137366
0.1127950422
0.0939080629
0.0757667981
0.0584752344
0.0421273455
0.0268070920
0.0125884218
-0.0004608633
-0.0122986445
-0.0229905404
-0.0326140862
-0.0412439562
-0.0489519629
-0.0558070579
-0.0618753315
-0.0672200124
-0.0719014685
-0.0759772061
-0.0795018704
-0.0825272450
-0.0851022528
-0.0872729548
-0.0890825512
-0.0905713807
-0.0917769208
-0.0927337876
-0.0934737361
-0.0940256600
-0.0944155916
-0.0946667020
-0.0947993011
-0.0948308374
-0.0947759982
-0.0946493024
-0.0944653394
-0.0942359852
-0.0939702545
-0.0936743008
-0.0933514162
-0.0930020315
-0.0926222538
-0.0921845608
-0.0917091191
-0.0912282943
-0.0907666854
-0.0903411251
-0.0899606792
-0.0896266472
-0.0893325619
-0.0890641895
-0.0887995297
-0.0885088156
-0.0881545137
-0.0876913240
-0.0870661799
-0.0862182482
-0.0850789293
-0.0835717223
-0.0816078931
-0.0790855404
-0.0759773671
-0.0721156667
-0.0672054581
-0.0610104966
-0.0533533675
-0.0441154858
-0.0332370964
-0.0207172739
-0.0066139231
0.0089562217
0.0258175962
0.0437358063
0.0624176280
0.0815110075
0.1006810930
0.1193540570
0.1367827996
0.1523229173
0.1654336643
0.1756779517
0.1827223483
0.1863370800
0.1863959257
0.1828719462
0.1758359820
0.1654621092
0.1519640900
0.1358748239
0.1178768299
0.0985970337
0.0786067699
0.0584218648
0.0385026527
0.0192538805
0.0010247014
-0.0158913244
-0.0312562306
-0.0448895210
-0.0568737690
-0.0672047397
-0.0758827779
-0.0831231742
-0.0893561649
-0.0952269322
-0.1015956041
-0.1095372545
-0.1203419029
-0.1355144925
-0.1567736973
-0.1894888698
-0.2310420180
-0.2676001566
-0.2876509021
-0.2821382461
-0.2444625557
-0.1704805733
-0.0585054164
0.0906934219
0.2738900736
0.4854022952
0.7110550586
0.9076495118
1.0362086987
1.0738715525
1.0138656343
0.8655071338
0.6532578478
0.4124565087
0.1761635023
-0.0314308389
-0.1950719823
-0.3084411954
-0.3703738909
-0.3860580723
-0.3698856755
-0.3342520982
-0.2893469245
-0.2431539243
-0.2014510533
-0.1678104534
-0.1435984530
-0.1278255502
-0.1170417853
-0.1096422086
-0.1046066958
-0.1010432767
-0.0981881351
-0.0954056090
-0.0921881907
-0.0881565264
-0.0830594164
-0.0767738154
-0.0693048320
-0.0607857290
-0.0514779233
-0.0414685405
-0.0304545393
-0.0183936105
-0.0052695458
0.0089091107
0.0241133856
0.0402944012
0.0573833765
0.0752916263
0.0939105620
0.1131116910
0.1327466170
0.1526470399
0.1726247558
0.1924716572
0.2120111359
0.2310886656
0.2494090767
0.2666969976
0.2827034369
0.2972057832
0.3100078049
0.3209396506
0.3298578489
0.3366453082
0.3412113171
0.3434915442
0.3434480472
0.3410706857
0.3363786414
0.3294178404
0.3202251281
0.3087901119
0.2953593170
0.2801993867
0.2635661323
0.2457045890
0.2268491244
0.2072233045
0.1870398628
0.1665007007
0.1457968873
0.1251086596
0.1046054225
0.0844457485
0.0647773780
0.0457372193
0.0274513484
0.0100350090
-0.0064073872
-0.0217822607
-0.0359977054
-0.0490041713
-0.0608558408
-0.0716129538
-0.0813347884
-0.0900795467
-0.0979043548
-0.1048652626
-0.1110172437
-0.1164141959
-0.1211089406
-0.1251532232
-0.1285977129
-0.1314920029
-0.1338846102
-0.1358229757
-0.1373534642
-0.1385213642
-0.1393708883
-0.1399451729
-0.1402862782
-0.1404351885
-0.1404318116
-0.1403149795
-0.1401224481
-0.1398505376
-0.1394847225
-0.1390439754
-0.1385448087
-0.1380015679
-0.1374264873
-0.1368296906
-0.1362191905
-0.1356008887
-0.1349785759
-0.1343539831
-0.1337269739
-0.1330953741
-0.1324548987
-0.1317991515
-0.1311196256
-0.1304057032
-0.1296446555
-0.1288216428
-0.1279197144
-0.1269198088
-0.1258007536
-0.1245392654
-0.1231099499
-0.1214923627
-0.1198831357
-0.1181513124
-0.1160072032
-0.1131961797
-0.1094974187
-0.1047236249
-0.0987210302
-0.0913693946
-0.0825820054
-0.0723056777
-0.0605207541
-0.0472411050
-0.0325141284
-0.0164207499
0.0009245774
0.0193738725
0.0387456269
0.0588248046
0.0793288258
0.0996535650
0.1190895406
0.1370026466
0.1528354083
0.1661069827
0.1764131583
0.1834263551
0.1868956247
0.1866475331
0.1825836338
0.1747673666
0.1636232331
0.1496338222
0.1332903148
0.1150924842
0.0955486955
0.0751759552
0.0545002529
0.0340563581
0.0143875482
-0.0042280858
-0.0215528841
-0.0372335830
-0.0510609743
-0.0629699053
-0.0730392785
-0.0814920521
-0.0886952396
-0.0951599099
-0.1015411873
-0.1086382516
-0.1173565659
-0.1287885543
-0.1456865232
-0.1693249055
-0.1987646354
-0.2308524498
-0.2602208883
-0.2792882929
-0.2808008441
-0.2537979890
-0.1864352409
-0.0732492883
0.0848175161
0.2804171557
0.4997959498
0.7230602812
0.9161712633
1.0397911253
1.0705866818
1.0022136439
0.8453166195
0.6275291130
0.3870838955
0.1541508573
-0.0483195979
-0.2055784662
-0.3110856020
-0.3665092196
-0.3785177863
-0.3569705045
-0.3159877404
-0.2669981739
-0.2186351082
-0.1767364695
-0.1443448074
-0.1216426806
-0.1056917873
-0.0945321053
-0.0868867378
-0.0816286267
-0.0777805526
-0.0745151349
-0.0711548322
-0.0671719414
-0.0621885985
-0.0559767782
-0.0484582942
-0.0397047988
-0.0299377832
-0.0195285320
-0.0084719723
0.0035718864
0.0166315966
0.0307143291
0.0458065299
0.0618741921
0.0788628566
0.0966976113
0.1152830918
0.1345034809
0.1542225089
0.1742834534
0.1945091395
0.2147019397
0.2346513334
0.2542387066
0.2732075261
0.2912662583
0.3081505945
0.3236234497
0.3374749638
0.3495225007
0.3596106488
0.3676112207
0.3734232535
0.3769730084
0.3782139713
0.3771269488
0.3737204848
0.3680305167
0.3601202066
0.3499717179
0.3376986456
0.3235828950
0.3078943904
0.2908910610
0.2728190286
0.2539126363
0.2343942373
0.2144741835
0.1943508243
0.1742105079
0.1542275801
0.1345643852
0.1153712656
0.0967865617
0.0789366124
0.0619357543
0.0458863226
0.0308786504
0.0169910690
0.0043162400
-0.0071394946
-0.0174479796
-0.0266796217
-0.0349028556
-0.0421841441
-0.0485879780
-0.0541768756
-0.0590113831
-0.0631500746
-0.0666495520
-0.0695644449
-0.0719474110
-0.0738491356
-0.0753183317
-0.0764017405
-0.0771441306
-0.0775882987
-0.0777750693
-0.0777432946
-0.0775298547
-0.0771696575
-0.0766956387
-0.0761387619
-0.0755280184
-0.0748904273
-0.0742463193
-0.0735436943
-0.0727838965
-0.0719932524
-0.0711941644
-0.0704051110
-0.0696406467
-0.0689114019
-0.0682240823
-0.0675814025
-0.0669820341
-0.0664207129
-0.0658882506
-0.0653715346
-0.0648535287
-0.0643132725
-0.0637258816
-0.0630625476
-0.0622905381
-0.0613731968
-0.0602699431
-0.0589362727
-0.0573237573
-0.0553800443
-0.0530488573
-0.0502745456
-0.0471152415
-0.0433584046
-0.0387016719
-0.0328940300
-0.0257358154
-0.0170787144
-0.0068257632
0.0050686521
0.0185987956
0.0337075818
0.0502865751
0.0681759901
0.0871646916
0.1069901946
0.1273386642
0.1478800552
0.1681444453
0.1873449395
0.2047768047
0.2198435556
0.2320569546
0.2410370123
0.2465119871
0.2483183855
0.2464014497
0.2408189706
0.2317392242
0.2194342135
0.2042030025
0.1866878018
0.1675940968
0.1475603816
0.1271581582
0.1068917627
0.0871980505
0.0684468008
0.0509408012
0.0349158475
0.0205407443
0.0079173047
-0.0029019331
-0.0119841171
-0.0196311681
-0.0263053825
-0.0326267098
-0.0393727527
-0.0474787672
-0.0580376621
-0.0722999995
-0.0916744857
-0.1177274055
-0.1496649260
-0.1804898112
-0.2021924627
-0.2066795341
-0.1857739307
-0.1312148098
-0.0346433893
0.1102754562
0.2970317993
0.5108493802
0.7310241737
0.9309243895
1.0779904719
1.1342304471
1.0830499543
0.9456013216
0.7473990081
0.5153927638
0.2779676289
0.0649439344
-0.0993477799
-0.2130661526
-0.2780043063
-0.2990126118
-0.2841111731
-0.2444912083
-0.1942867514
-0.1445770947
-0.1006732045
-0.0657347817
-0.0408710856
-0.0251409343
-0.0155525568
-0.0086358326
-0.0034276650
0.0009463061
0.0051686449
0.0097276822
0.0149175153
0.0208380077
0.0274100798
0.0346921914
0.0427978853
0.0517935985
0.0617323874
0.0726539273
0.0845845129
0.0975370578
0.1115109147
0.1264896180
0.1424415696
0.1593224759
0.1771749639
0.1959053612
0.2153058944
0.2351706594
0.2552956215
0.2754786158
0.2955193467
0.3152193880
0.3343821831
0.3528130450
0.3703191560
0.3867095681
0.4017952025
0.4153888502
0.4273051715
0.4373606964
0.4453738240
0.4511648234
0.4545454833
0.4552004297
0.4531867804
0.4486918401
0.4419031483
0.4330082101
0.4221934584
0.4096442240
0.3955447356
0.3800781199
0.3634264012
0.3457705021
0.3272901505
0.3081632727
0.2885663732
0.2686748525
0.2486630092
0.2287040396
0.2089700382
0.1896319971
0.1708598066
0.1528222545
0.1356870271
0.1196207080
0.1047860363
0.0911971257
0.0787805773
0.0674903841
0.0572797573
0.0481006129
0.0399036329
0.0326387300
0.0262550642
0.0207010429
0.0159243211
0.0118718009
0.0084896319
0.0057232112
0.0035171831
0.0018154394
0.0005611193
-0.0003033908
-0.0008364567
-0.0010971973
-0.0011454838
-0.0010410945
-0.0008017397
-0.0004348886
0.0000399329
0.0006046054
0.0012424169
0.0019380621
0.0026776431
0.0034486900
0.0042406201
0.0050447304
0.0058537448
0.0066617941
0.0074644163
0.0082585564
0.0090425663
0.0098162049
0.0105806833
0.0113392217
0.0120968776
0.0128673510
0.0136783847
0.0145162764
0.0153746761
0.0162602355
0.0171926081
0.0182044496
0.0193414173
0.0206621708
0.0222383713
0.0241546820
0.0265087682
0.0294112968
0.0329859018
0.0373682665
0.0427060343
0.0491281953
0.0567107415
0.0656860315
0.0762329536
0.0884537772
0.1023741536
0.1179431155
0.1350330771
0.1534398342
0.1728825640
0.1930038253
0.2133695585
0.2334690853
0.2527151092
0.2705010173
0.2863238723
0.2995870530
0.3098010159
0.3166001971
0.3197430127
0.3191118585
0.3147131101
0.3066771546
0.2952594242
0.2808406244
0.2639255184
0.2451428492
0.2252424354
0.2047741662
0.1842167104
0.1641020134
0.1448720277
0.1268783225
0.1103820442
0.0955543386
0.0824763736
0.0711393386
0.0614444450
0.0532029263
0.0461360376
0.0399188357
0.0339658693
0.0265937794
0.0162252737
0.0015678472
-0.0183862178
-0.0443608143
-0.0760039768
-0.1077505181
-0.1320190682
-0.1407113892
-0.1252123201
-0.0763897769
0.0143546320
0.1507750520
0.3309233346
0.5436122765
0.7681929600
0.9745547529
1.1228518647
1.1785630486
1.1396169401
1.0151928894
0.8226159986
0.5873571219
0.3430328652
0.1285295154
-0.0411603534
-0.1622631221
-0.2341261245
-0.2604374585
-0.2492259868
-0.2128449027
-0.1647128914
-0.1143733391
-0.0688141840
-0.0323217293
-0.0064806429
0.0098260424
0.0202860341
0.0275667004
0.0327540879
0.0369091913
0.0408413496
0.0451079075
0.0500141787
0.0556134462
0.0617813885
0.0686539602
0.0763224333
0.0848459449
0.0942726185
0.1046395648
0.1159728811
0.1282876515
0.1415879470
0.1558668252
0.1711282725
0.1875786061
0.2050990852
0.2234700091
0.2424766275
0.2619091412
0.2815627017
0.3012374112
0.3207383229
0.3398754408
0.3584637195
0.3763230646
0.3932783325
0.4091593303
0.4238008161
0.4370424985
0.4487290373
0.4587100427
0.4668400761
0.4729786495
0.4769902257
0.4787442184
0.4781149920
0.4749532883
0.4690090906
0.4604917550
0.4496917466
0.4368870498
0.4223437546
0.4063161289
0.3890466183
0.3707658460
0.3516926130
0.3320338978
0.3119848567
0.2917287225
0.2714366374
0.2512678766
0.2313698931
0.2118783176
0.1929169584
0.1745978017
0.1570210112
0.1402749283
0.1244360722
0.1095691396
0.0957270052
0.0829507210
0.0712695170
0.0607013952
0.0512396901
0.0428130512
0.0353422853
0.0287514813
0.0229679457
0.0179222019
0.0135479910
0.0097822716
0.0065652193
0.0038402274
0.0015539064
-0.0003439158
-0.0019001938
-0.0031586650
-0.0041598493
-0.0049410492
-0.0055363500
-0.0059766195
-0.0062895080
-0.0064994487
-0.0066276572
-0.0066921318
-0.0067076534
-0.0066857856
-0.0066348745
-0.0065600476
-0.0064543066
-0.0063112684
-0.0061482640
-0.0059797045
-0.0058164732
-0.0056659248
-0.0055318863
-0.0054146562
-0.0053110049
-0.0052141334
-0.0051135355
-0.0049951284
-0.0048413011
-0.0046309144
-0.0043393009
-0.0039382652
-0.0033960836
-0.0026775042
-0.0017437470
-0.0005525038
0.0009052882
0.0026961508
0.0050301761
0.0081011367
0.0120826766
0.0171273394
0.0233650028
0.0309050100
0.0398365776
0.0502287964
0.0621306306
0.0755709182
0.0905583711
0.1070815750
0.1251844284
0.1447132048
0.1650031897
0.1854119136
0.2053424853
0.2242435924
0.2416095005
0.2569800542
0.2699406761
0.2801223675
0.2872017081
0.2909008562
0.2909875482
0.2872750994
0.2795952456
0.2681191354
0.2535662077
0.2366369656
0.2179774435
0.1981786773
0.1777767037
0.1572525610
0.1370322886
0.1174869270
0.0989325182
0.0816300787
0.0657854368
0.0515493388
0.0390175323
0.0282280770
0.0190702360
0.0112261591
0.0041874337
-0.0027511453
-0.0104915755
-0.0201326467
-0.0329699414
-0.0504958343
-0.0744028937
-0.1051876310
-0.1380811437
-0.1665190001
-0.1831717506
-0.1799436242
-0.1479721907
-0.0777153277
0.0370986396
0.1970687608
0.3951820823
0.6157210106
0.8342633127
1.0176821164
1.1264180745
1.1392040894
1.0555046884
0.8882615227
0.6640056507
0.4212106521
0.1906596821
-0.0072234646
-0.1594320512
-0.2608874151
-0.3137198804
-0.3231506845
-0.3019714053
-0.2623798719
-0.2144992240
-0.1663780381
-0.1239901943
-0.0912345807
-0.0688295819
-0.0541560956
-0.0447967333
-0.0387537032
-0.0344488107
-0.0307234323
-0.0268382211
-0.0224732080
-0.0177136150
-0.0124780835
-0.0065812886
0.0000489970
0.0074751169
0.0157495317
0.0249148182
0.0350036701
0.0460388977
0.0580334276
0.0709903034
0.0849026852
0.0997558670
0.1157263673
0.1327829680
0.1507060808
0.1692815318
0.1883005616
0.2075598248
0.2268613907
0.2460127426
0.2648267782
0.2831218097
0.3007215634
0.3174551800
0.3331572146
0.3476676366
0.3608318296
0.3725005916
0.3825301351
0.3907820865
0.3971234870
0.4014267917
0.4035698704
0.4034360070
0.4009138998
0.3957893929
0.3880919515
0.3780998503
0.3660772497
0.3522767800
0.3369406759
0.3203007775
0.3025785296
0.2839849825
0.2647207911
0.2449762154
0.2249311017
0.2047544266
0.1846042737
0.1646283081
0.1449638000
0.1257376244
0.1070662617
0.0890557970
0.0718019205
0.0553899276
0.0398947184
0.0253807985
0.0119022780
-0.0004971275
-0.0117841057
-0.0219812586
-0.0311689292
-0.0394214008
-0.0468080946
-0.0533954890
-0.0592471214
-0.0644235875
-0.0689825421
-0.0729786984
-0.0764638285
-0.0794867630
-0.0820933912
-0.0843266614
-0.0862265801
-0.0878302130
-0.0891716841
-0.0902821763
-0.0911899312
-0.0919202488
-0.0924954883
-0.0929350672
-0.0932554618
-0.0934702071
-0.0935898967
-0.0936221832
-0.0935717776
-0.0934414007
-0.0932365643
-0.0929478219
-0.0925490990
-0.0920726127
-0.0915493822
-0.0910049485
-0.0904593745
-0.0899272448
-0.0894176588
-0.0889337715
-0.0884725064
-0.0880252400
-0.0875778708
-0.0871108188
-0.0865990260
-0.0860119562
-0.0853135949
-0.0844624493
-0.0834115485
-0.0821084433
-0.0804952064
-0.0785084322
-0.0760792368
-0.0731713379
-0.0697643644
-0.0655674478
-0.0603129274
-0.0537863772
-0.0458266103
-0.0363256791
-0.0252288748
-0.0125347280
0.0017049918
0.0173852759
0.0343478764
0.0523813065
0.0712208401
0.0905485121
0.1100151473
0.1291566222
0.1472527675
0.1636511851
0.1777932730
0.1892142263
0.1975430363
0.2025024911
0.2039091755
0.2016734708
0.1957995548
0.1863748923
0.1736014976
0.1580506852
0.1403248762
0.1209947987
0.1005994881
0.0796462868
0.0586108443
0.0379371172
0.0180373686
-0.0007080811
-0.0179597077
-0.0337625649
-0.0479717037
-0.0603820828
-0.0709715574
-0.0799008795
-0.0875136981
-0.0943365587
-0.1010789036
-0.1086330717
-0.1180742990
-0.1306607179
-0.1478333577
-0.1712161444
-0.2019535879
-0.2353856562
-0.2638921267
-0.2797709759
-0.2752533579
-0.2425036055
-0.1736192292
-0.0603722757
0.1020495234
0.3009349101
0.5176373173
0.7300266817
0.9124894443
1.0359285503
1.0678076674
0.9906673382
0.8306723903
0.6187272855
0.3833618285
0.1507311669
-0.0553842090
-0.2148090741
-0.3228503058
-0.3837476268
-0.4034557346
-0.3896774986
-0.3518620289
-0.3012055704
-0.2505055042
-0.2078410368
-0.1740321938
-0.1489588949
-0.1318324515
-0.1211955668
-0.1149223358
-0.1103192953
-0.1061323368
-0.1021056348
-0.0979304423
-0.0933563158
-0.0881911155
-0.0823010052
-0.0756104524
-0.0681022282
-0.0597971135
-0.0506341105
-0.0405420421
-0.0294702544
-0.0173869881
-0.0042793775
0.0098463950
0.0249634533
0.0410248589
0.0579647594
0.0756984083
0.0941221651
0.1131134950
0.1325309691
0.1522142644
0.1719841639
0.1916560670
0.2111358187
0.2301621234
0.2484475217
0.2657288612
0.2817672961
0.2963482875
0.3092816036
0.3204013191
0.3295658157
0.3366577820
0.3415842132
0.3442764118
0.3446899866
0.3428048536
0.3386253756
0.3321821289
0.3235137204
0.3125803277
0.2995972464
0.2848291175
0.2685302187
0.2509444637
0.2323054028
0.2128362228
0.1927497591
0.1722485689
0.1515248810
0.1307605608
0.1101271101
0.0897856672
0.0698870065
0.0505715390
0.0319693121
0.0142000097
-0.0026270483
-0.0184129052
-0.0330686476
-0.0465038932
-0.0587331830
-0.0698151134
-0.0798098114
-0.0887784155
-0.0967810292
-0.1038766617
-0.1101232276
-0.1155775474
-0.1202953470
-0.1243312581
-0.1277388179
-0.1305704692
-0.1328775606
-0.1347103461
-0.1361179856
-0.1371485443
-0.1378489933
-0.1382652092
-0.1384419743
-0.1384229763
-0.1382508089
-0.1379669710
-0.1376118676
-0.1372226546
-0.1367815113
-0.1362907270
-0.1357717155
-0.1352405326
-0.1347082290
-0.1341836385
-0.1336734789
-0.1331823519
-0.1327127431
-0.1322650222
-0.1318374427
-0.1314261423
-0.1310251501
-0.1306264684
-0.1302200420
-0.1297937004
-0.1293331572
-0.1288220100
-0.1282417404
-0.1275717138
-0.1267891798
-0.1258692718
-0.1247850071
-0.1235072872
-0.1220080926
-0.1203771837
-0.1184859359
-0.1161008990
-0.1130160375
-0.1090526903
-0.1040559861
-0.0978946845
-0.0904611756
-0.0816714803
-0.0714652499
-0.0598057664
-0.0466799425
-0.0320983215
-0.0160950773
0.0012719856
0.0199214321
0.0397576136
0.0604955769
0.0814636617
0.1020058620
0.1215219565
0.1394675084
0.1553538652
0.1687481591
0.1792733066
0.1866080088
0.1904867511
0.1906999361
0.1870973729
0.1796066236
0.1686258647
0.1547343873
0.1384895963
0.1204270101
0.1010602608
0.0808810944
0.0603593703
0.0399430700
0.0200584802
0.0011101933
-0.0165190762
-0.0325205352
-0.0468791753
-0.0595221574
-0.0704799216
-0.0799198420
-0.0881462262
-0.0956003161
-0.1028602871
-0.1106412486
-0.1197952438
-0.1313112498
-0.1463152397
-0.1660722314
-0.1919867507
-0.2247301042
-0.2576002011
-0.2808316367
-0.2856087545
-0.2640926716
-0.2094212787
-0.1157092404
0.0219520048
0.2078175890
0.4262336265
0.6480135675
0.8454650827
0.9925031194
1.0646499013
1.0390775849
0.9106793624
0.7133361569
0.4820138145
0.2462132491
0.0299704414
-0.1481435605
-0.2753456746
-0.3508747775
-0.3823713759
-0.3783732103
-0.3480911367
-0.3014091969
-0.2488846186
-0.2015948876
-0.1649934502
-0.1378669681
-0.1187308486
-0.1059586469
-0.0977824208
-0.0922929269
-0.0875509175
-0.0828183281
-0.0779050918
-0.0726128596
-0.0667758694
-0.0602609457
-0.0529674998
-0.0448275295
-0.0358056195
-0.0258968175
-0.0150721123
-0.0032781376
0.0095192125
0.0233344527
0.0381622536
0.0539781303
0.0707385037
0.0883807012
0.1068229563
0.1259644084
0.1456851035
0.1658459934
0.1862889363
0.2068366966
0.2272929447
0.2474422573
0.2670501172
0.2858629134
0.3036476377
0.3202836430
0.3355191804
0.3491165444
0.3608708206
0.3706098855
0.3781944066
0.3835178427
0.3865064433
0.3871192579
0.3853487774
0.3812213752
0.3747963197
0.3661656709
0.3554542793
0.3428197868
0.3284526262
0.3125692415
0.2952845973
0.2768283420
0.2574771787
0.2374906788
0.2171105768
0.1965606472
0.1760467043
0.1557566021
0.1358602346
0.1165095356
0.0978384788
0.0799630778
0.0629813859
0.0469734963
0.0320015422
0.0181096965
0.0053331959
-0.0062180422
-0.0165798356
-0.0258325524
-0.0340537631
-0.0413182407
-0.0476979605
-0.0532621006
-0.0580770411
-0.0622063649
-0.0657108573
-0.0686485059
-0.0710745009
-0.0730412349
-0.0745983029
-0.0757925025
-0.0766678337
-0.0772654987
-0.0776239026
-0.0777786527
-0.0777625587
-0.0776056329
-0.0773350899
-0.0769753470
-0.0765480236
-0.0760719357
-0.0755621057
-0.0750286786
-0.0744787416
-0.0739165841
-0.0733436981
-0.0727587779
-0.0721577203
-0.0715291958
-0.0708259852
-0.0700668728
-0.0692824927
-0.0684961320
-0.0677231787
-0.0669709429
-0.0662386565
-0.0655174733
-0.0647904692
-0.0640326417
-0.0632109106
-0.0622841174
-0.0612030255
-0.0599103204
-0.0583406094
-0.0564204217
-0.0540682108
-0.0511949692
-0.0477050526
-0.0434949441
-0.0384940957
-0.0326401106
-0.0256416749
-0.0172535277
-0.0072982402
0.0043337840
0.0176843090
0.0327272667
0.0493687568
0.0674470465
0.0867325710
0.1069279331
0.1276679033
0.1485194198
0.1689815887
0.1885866182
0.2067557892
0.2227981694
0.2361454948
0.2463530369
0.2530996029
0.2561875348
0.2555423898
0.2512124219
0.2433692849
0.2323081682
0.2184477965
0.2022208631
0.1841686744
0.1649790767
0.1452657393
0.1255671376
0.1063466043
0.0879926118
0.0708185710
0.0550626988
0.0408880178
0.0283823564
0.0175583486
0.0086620500
0.0015599809
-0.0046025774
-0.0106822261
-0.0175336122
-0.0260094288
-0.0369604147
-0.0512353536
-0.0696800255
-0.0931351695
-0.1225369494
-0.1602174947
-0.1940646300
-0.2094019767
-0.1951786192
-0.1439691057
-0.0519734475
0.0809828805
0.2514489402
0.4523483299
0.6729713408
0.8901877358
1.0595064354
1.1475414369
1.1379098117
1.0312317051
0.8451303367
0.6136603199
0.3729348187
0.1500538700
-0.0354466869
-0.1720641044
-0.2563287263
-0.2928045007
-0.2893857531
-0.2577197457
-0.2114691308
-0.1613062751
-0.1149132595
-0.0769818792
-0.0492136438
-0.0303324961
-0.0174762148
-0.0088251910
-0.0029412627
0.0013824178
0.0051212796
0.0090193307
0.0135891587
0.0191119302
0.0256373913
0.0329838672
0.0408286461
0.0494129369
0.0588733656
0.0692598636
0.0806061545
0.0929297552
0.1062329974
0.1205058185
0.1357228371
0.1518424646
0.1688069054
0.1865421564
0.2050096054
0.2241730596
0.2437957720
0.2636392111
0.2834726277
0.3030730549
0.3222253085
0.3407219865
0.3583634694
0.3749579202
0.3903212840
0.4042772888
0.4166574445
0.4273010439
0.4360551618
0.4427746557
0.4473221654
0.4495681131
0.4492961645
0.4462256956
0.4405776037
0.4326017484
0.4225400691
0.4106265854
0.3970873966
0.3821406818
0.3659967004
0.3488577912
0.3309183732
0.3123649256
0.2933755867
0.2741201698
0.2547605519
0.2354506898
0.2163366203
0.1975564601
0.1792404056
0.1615107333
0.1444817996
0.1282600406
0.1129439725
0.0986241913
0.0853833730
0.0732962733
0.0624142246
0.0526842497
0.0440255658
0.0363611566
0.0296169546
0.0237218410
0.0186076456
0.0142091472
0.0104640732
0.0073130999
0.0046998522
0.0025709039
0.0008757773
-0.0004330561
-0.0014001765
-0.0020672151
-0.0024728544
-0.0026528282
-0.0026399214
-0.0024639703
-0.0021518623
-0.0017275361
-0.0012119819
-0.0006232406
0.0000235951
0.0007161395
0.0014436581
0.0021979329
0.0029882703
0.0038165144
0.0046644207
0.0055170672
0.0063628743
0.0071936046
0.0080043631
0.0087936026
0.0095634193
0.0103196962
0.0110716944
0.0118320176
0.0126166114
0.0134447639
0.0143391054
0.0153256088
0.0164335888
0.0176957028
0.0191479504
0.0208188459
0.0226911781
0.0249394241
0.0277637610
0.0313453890
0.0358464538
0.0414100004
0.0481599726
0.0562012138
0.0656194663
0.0764813714
0.0888344697
0.1027072009
0.1181089037
0.1350298162
0.1535591372
0.1734324027
0.1939364951
0.2144071686
0.2342338010
0.2528593930
0.2697805691
0.2845475768
0.2967642873
0.3060881948
0.3122304172
0.3149556954
0.3140823940
0.3094826546
0.3010772321
0.2890270219
0.2740270755
0.2567878434
0.2379624537
0.2181467123
0.1978791025
0.1776407854
0.1578555995
0.1388900608
0.1210532496
0.1045966623
0.0897144362
0.0765433860
0.0651592428
0.0554100247
0.0471691686
0.0401878555
0.0339560018
0.0277022599
0.0203940172
0.0107373971
-0.0028227418
-0.0221028028
-0.0483127871
-0.0790834721
-0.1098210658
-0.1342846734
-0.1445862901
-0.1311908018
-0.0846696410
0.0025049649
0.1370132235
0.3165815292
0.5296251432
0.7552481936
0.9634948914
1.1187884924
1.1905756429
1.1643557231
1.0426340889
0.8449220719
0.6076087780
0.3689392271
0.1526120123
-0.0242419636
-0.1518499488
-0.2277973423
-0.2570276940
-0.2486796800
-0.2139386565
-0.1662303046
-0.1159654557
-0.0704972932
-0.0341213521
-0.0080755198
0.0094137194
0.0211106932
0.0287750512
0.0339004362
0.0377116844
0.0411648615
0.0449472249
0.0494772124
0.0549044423
0.0611097133
0.0678147197
0.0752522405
0.0835421678
0.0927419014
0.1028956610
0.1140344856
0.1261762343
0.1393255855
0.1534738582
0.1685973595
0.1846581442
0.2016913708
0.2197092141
0.2384951794
0.2578323326
0.2775079448
0.2973134920
0.3170446554
0.3365013213
0.3554875810
0.3738117312
0.3912862733
0.4077279142
0.4229575657
0.4368003447
0.4490855732
0.4596467784
0.4683216926
0.4749522531
0.4793846023
0.4814690879
0.4809956270
0.4775769627
0.4714134527
0.4627859356
0.4519651500
0.4392112152
0.4247736220
0.4088912332
0.3917922830
0.3736943772
0.3548044933
0.3353189804
0.3154235594
0.2952933367
0.2750928766
0.2549761477
0.2350864903
0.2155566164
0.1965086094
0.1780539246
0.1602933888
0.1433172005
0.1272049298
0.1120255184
0.0978372797
0.0846878987
0.0726144320
0.0616432807
0.0517851794
0.0429907369
0.0351794608
0.0282737303
0.0221992172
0.0168848853
0.0122629909
0.0082690828
0.0048420018
0.0019238812
-0.0005398533
-0.0026004836
-0.0043059996
-0.0057010986
-0.0068271856
-0.0077223733
-0.0084214820
-0.0089560397
-0.0093542822
-0.0096411527
-0.0098383022
-0.0099640895
-0.0100335809
-0.0100585503
-0.0100474455
-0.0100048164
-0.0099200792
-0.0097975746
-0.0096537241
-0.0095017282
-0.0093515663
-0.0092099968
-0.0090805569
-0.0089635630
-0.0088561102
-0.0087520767
-0.0086421630
-0.0085138741
-0.0083514944
-0.0081360871
-0.0078454946
-0.0074543380
-0.0069340175
-0.0062527122
-0.0053753800
-0.0042637581
-0.0029229444
-0.0012512900
0.0009471283
0.0038516946
0.0076243199
0.0124095433
0.0183353648
0.0255132757
0.0340382590
0.0439887890
0.0554268314
0.0683978435
0.0829307738
0.0990380625
0.1168103335
0.1360193627
0.1560284134
0.1762327260
0.1960644388
0.2149925874
0.2325231055
0.2481988242
0.2615994727
0.2723416775
0.2800789631
0.2845017516
0.2853373628
0.2823500143
0.2752553376
0.2641634267
0.2498570678
0.2330808613
0.2145168868
0.1947847026
0.1744413459
0.1539813331
0.1338366593
0.1143767985
0.0959087038
0.0786768044
0.0628629551
0.0485864403
0.0359040215
0.0248099391
0.0152359125
0.0070511401
0.0003789061
-0.0057021454
-0.0128286764
-0.0223832394
-0.0354939580
-0.0530345276
-0.0756242146
-0.1036278175
-0.1366916149
-0.1685433306
-0.1897426325
-0.1914663951
-0.1655540240
-0.1045074562
-0.0014911596
0.1503755791
0.3453974613
0.5622557265
0.7770252492
0.9635236235
1.0933111630
1.1356909007
1.0681797933
0.9130490735
0.7029783553
0.4676934031
0.2339655750
0.0256118232
-0.1371589107
-0.2481616346
-0.3110081000
-0.3314084581
-0.3173088421
-0.2788937021
-0.2285863461
-0.1791690151
-0.1360713103
-0.1014789484
-0.0761841591
-0.0595790675
-0.0496556940
-0.0431008248
-0.0379051326
-0.0335044067
-0.0293269094
-0.0249324549
-0.0200125203
-0.0143902545
-0.0080204786
-0.0009692687
0.0068278300
0.0154588239
0.0249802983
0.0354337780
0.0468457272
0.0592275496
0.0725755887
0.0868711669
0.1020822749
0.1181641945
0.1350573157
0.1526869681
0.1710318316
0.1900054343
0.2093753200
0.2289144004
0.2484018259
0.2676229863
0.2863695102
0.3044392655
0.3216363589
0.3377711362
0.3526601825
0.3661263215
0.3779986165
0.3881123693
0.3963091211
0.4024366521
0.4063489814
0.4079058796
0.4068122118
0.4030410198
0.3967997276
0.3882928512
0.3777221386
0.3652861912
0.3511804301
0.3355970951
0.3187252458
0.3007507608
0.2818563380
0.2622214945
0.2420225670
0.2214327106
0.2006218087
0.1797563629
0.1589996670
0.1385118343
0.1184497972
0.0989673075
0.0802149362
0.0623400735
0.0454869290
0.0297965315
0.0153904121
0.0022458693
-0.0097038575
-0.0205205906
-0.0302665119
-0.0390053616
-0.0467997725
-0.0537109867
-0.0597988553
-0.0651218388
-0.0697370067
-0.0737000379
-0.0770652203
-0.0798854510
-0.0822122363
-0.0840956918
-0.0855845421
-0.0867261210
-0.0875663717
-0.0881498464
-0.0885197064
-0.0887177223
-0.0887842740
-0.0887583504
-0.0886775495
-0.0885780789
-0.0884540417
-0.0882907778
-0.0881119222
-0.0879365331
-0.0877771911
-0.0876435984
-0.0875430251
-0.0874803092
-0.0874578565
-0.0874756409
-0.0875312039
-0.0876196553
-0.0877336723
-0.0878635006
-0.0879968834
-0.0881188852
-0.0882120833
-0.0882566227
-0.0882302168
-0.0881081464
-0.0878632605
-0.0874659760
-0.0868842775
-0.0860837176
-0.0850566908
-0.0838571880
-0.0822639453
-0.0800408760
-0.0769806468
-0.0729066454
-0.0676696943
-0.0611475773
-0.0532450388
-0.0438937847
-0.0330524814
-0.0207067568
-0.0068691995
0.0084206409
0.0250962535
0.0430641667
0.0622122988
0.0823142013
0.1027050090
0.1227037122
0.1416903698
0.1591061095
0.1744531276
0.1872946894
0.1972551289
0.2040198487
0.2073353204
0.2070090842
0.2029097529
0.1949664640
0.1835354951
0.1692252815
0.1526180270
0.1342682098
0.1147025832
0.0944201752
0.0738922885
0.0535625007
0.0338466641
0.0151329059
-0.0022183996
-0.0178730177
-0.0316324352
-0.0435858574
-0.0539387233
-0.0629918428
-0.0711413958
-0.0788789332
-0.0867913759
-0.0955610156
-0.1059655144
-0.1188779047
-0.1352665897
-0.1561953437
-0.1828238108
-0.2156473000
-0.2474352764
-0.2673049976
-0.2658023627
-0.2349714093
-0.1683543135
-0.0609913901
0.0905789076
0.2913218765
0.5210537059
0.7409858383
0.9195639497
1.0326853891
1.0636991781
1.0034060114
0.8511359225
0.6340320869
0.3923571984
0.1578258919
-0.0463943451
-0.2056831717
-0.3139673945
-0.3728845640
-0.3854866941
-0.3652803062
-0.3258322058
-0.2781320071
-0.2305924941
-0.1890496206
-0.1567625107
-0.1344134582
-0.1201079269
-0.1103716990
-0.1036465115
-0.0988875579
-0.0952042909
-0.0918656505
-0.0883000654
-0.0840954557
-0.0789992322
-0.0729182967
-0.0659190421
-0.0582203276
-0.0497773447
-0.0404125210
-0.0300673840
-0.0187018144
-0.0062940453
0.0071593370
0.0216424904
0.0371182159
0.0535303380
0.0708043285
0.0888473063
0.1075480378
0.1267769365
0.1464026986
0.1663774621
0.1864484291
0.2063297428
0.2257527051
0.2444657770
0.2622345784
0.2788418880
0.2940876434
0.3077889413
0.3197800371
0.3299123452
0.3380544389
0.3440920505
0.3479280710
0.3494825505
0.3486926978
0.3455128809
0.3397945256
0.3314867094
0.3208658932
0.3082029182
0.2937582219
0.2777818383
0.2605133978
0.2421821270
0.2230068490
0.2031959835
0.1829475461
0.1624491535
0.1418780966
0.1214013317
0.1011754138
0.0813464943
0.0620503209
0.0434122377
0.0255471853
0.0085597007
-0.0074560829
-0.0224164358
-0.0362480319
-0.0488878347
-0.0602787453
-0.0704610100
-0.0795173739
-0.0875287030
-0.0945729532
-0.1007251698
-0.1060574880
-0.1106391322
-0.1145364170
-0.1178127461
-0.1205286132
-0.1227416015
-0.1245063838
-0.1258747227
-0.1268954701
-0.1276145679
-0.1280750475
-0.1283170298
-0.1283777255
-0.1282914348
-0.1280895478
-0.1278005438
-0.1274499922
-0.1270605517
-0.1266519708
-0.1262410875
-0.1258409497
-0.1254574990
-0.1250925180
-0.1247448782
-0.1244105412
-0.1240825580
-0.1237496679
-0.1233760110
-0.1229745790
-0.1225716758
-0.1221856901
-0.1218270962
-0.1214984750
-0.1211945222
-0.1209020202
-0.1205998365
-0.1202589233
-0.1198423177
-0.1193051415
-0.1185946016
-0.1176499895
-0.1164026817
-0.1147761394
-0.1126859088
-0.1100396208
-0.1067375895
-0.1027312202
-0.0979465827
-0.0920839313
-0.0848938340
-0.0761896040
-0.0658472995
-0.0538057237
-0.0400664251
-0.0246936969
-0.0078145775
0.0103811495
0.0296409558
0.0496495677
0.0700289668
0.0903406193
0.1101323864
0.1287374715
0.1454908430
0.1598286305
0.1712881242
0.1795077751
0.1842271953
0.1852871578
0.1826295962
0.1762955799
0.1664199500
0.1534734098
0.1380116078
0.1205794408
0.1017110529
0.0819298363
0.0617484309
0.0416687244
0.0221818523
0.0037566147
-0.0135234677
-0.0293624192
-0.0434097306
-0.0554905504
-0.0656056699
-0.0739315234
-0.0808201878
-0.0867993826
-0.0925724704
-0.0990184563
-0.1071919883
-0.1183106593
-0.1339041356
-0.1557000820
-0.1834897643
-0.2147892099
-0.2448394472
-0.2666066788
-0.2707822827
-0.2495252777
-0.1924839303
-0.0896316751
0.0609097337
0.2528595890
0.4717782319
0.6950670511
0.8922449468
1.0277412779
1.0744849897
1.0223002617
0.8781429649
0.6661006616
0.4257659150
0.1907252840
-0.0161455047
-0.1793153389
-0.2911607047
-0.3519656870
-0.3686161648
-0.3499281980
-0.3100523785
-0.2610228885
-0.2119618686
-0.1690794145
-0.1356735763
-0.1120638510
-0.0952769810
-0.0833562706
-0.0750621714
-0.0692931308
-0.0650855926
-0.0616139701
-0.0581905847
-0.0542657352
-0.0494277164
-0.0434028191
-0.0360553299
-0.0273875316
-0.0175397031
-0.0067901190
0.0044860554
0.0165568737
0.0296150835
0.0436677420
0.0587015419
0.0746836501
0.0915612614
0.1092611051
0.1276894410
0.1467320589
0.1662542786
0.1861009503
0.2060964543
0.2260447011
0.2457291311
0.2649180504
0.2834804104
0.3011696480
0.3176989928
0.3328124124
0.3462846131
0.3579210395
0.3675578745
0.3750620393
0.3803311938
0.3832937359
0.3839088020
0.3821662671
0.3780867442
0.3717215850
0.3631528794
0.3524934557
0.3398300681
0.3252483004
0.3090322453
0.2914608602
0.2727988432
0.2532966342
0.2331904142
0.2127021054
0.1920393715
0.1713956607
0.1509504037
0.1308688547
0.1113020096
0.0923866054
0.0742451206
0.0569857746
0.0407025286
0.0254750847
0.0113704365
-0.0015084421
-0.0131764012
-0.0237039957
-0.0331598240
-0.0416110517
-0.0491232147
-0.0557598499
-0.0615824891
-0.0666506588
-0.0710218801
-0.0747516691
-0.0778935364
-0.0804989875
-0.0826175227
-0.0842966368
-0.0855818195
-0.0865165553
-0.0871423234
-0.0874985975
-0.0876228465
-0.0875505337
-0.0873151172
-0.0869480500
-0.0864787796
-0.0859347485
-0.0853413937
-0.0847089590
-0.0839820969
-0.0831783518
-0.0823254931
-0.0814468712
-0.0805617851
-0.0796854908
-0.0788292016
-0.0780000878
-0.0772012767
-0.0764318529
-0.0756868581
-0.0749572909
-0.0742301073
-0.0734882674
-0.0727111299
-0.0718742508
-0.0709491459
-0.0699032881
-0.0687001072
-0.0672989904
-0.0656552818
-0.0637202827
-0.0614412515
-0.0587614036
-0.0556487152
-0.0521276790
-0.0479063417
-0.0426922142
-0.0362457503
-0.0283803188
-0.0189622023
-0.0079105974
0.0048023853
0.0191517216
0.0350594729
0.0523947870
0.0709738977
0.0905601248
0.1108638743
0.1315426381
0.1522658901
0.1723957511
0.1911565258
0.2078836985
0.2220239812
0.2331353142
0.2408868657
0.2450590320
0.2455434374
0.2423429344
0.2355716034
0.2254547204
0.2122923168
0.1964915072
0.1787696157
0.1598046324
0.1402052172
0.1205107008
0.1011910837
0.0826470370
0.0652099021
0.0491416905
0.0346350840
0.0218134534
0.0107416149
0.0017037246
-0.0056527742
-0.0120160211
-0.0181189495
-0.0247392872
-0.0326995554
-0.0428670698
-0.0561539397
-0.0735170686
-0.0959581538
-0.1246222165
-0.1625059067
-0.1974093443
-0.2141134891
-0.2011733330
-0.1509179357
-0.0594504249
0.0733520037
0.2438380868
0.4445824929
0.6643858229
0.8808524005
1.0492119670
1.1354282474
1.1232116840
1.0140180854
0.8270486269
0.5956301522
0.3545750815
0.1327222649
-0.0501142544
-0.1831559058
-0.2646595911
-0.2978080609
-0.2911871064
-0.2593097785
-0.2142286712
-0.1654733933
-0.1200506319
-0.0824435322
-0.0546116636
-0.0357737226
-0.0228878985
-0.0141898440
-0.0082868592
-0.0039971407
-0.0003497814
0.0034152298
0.0078470032
0.0132835883
0.0198519255
0.0274680448
0.0358370796
0.0447062752
0.0544399103
0.0651200027
0.0767873759
0.0894647615
0.1031567989
0.1178500353
0.1335129257
0.1500958682
0.1675323745
0.1857393482
0.2046156919
0.2240614209
0.2440516883
0.2643505483
0.2846906981
0.3048176200
0.3244895822
0.3434776383
0.3615656274
0.3785501743
0.3942406893
0.4084593681
0.4210411922
0.4318339284
0.4406981293
0.4475071328
0.4521470625
0.4545168276
0.4545281226
0.4519258500
0.4465615967
0.4387261791
0.4287044840
0.4167664658
0.4031658341
0.3881445915
0.3719333874
0.3547515170
0.3368069218
0.3182961897
0.2994045545
0.2803058965
0.2611627421
0.2421262638
0.2233362811
0.2049213440
0.1869988185
0.1696747370
0.1530437782
0.1371892669
0.1221831744
0.1080861179
0.0949473610
0.0828048133
0.0716850308
0.0616025116
0.0525238490
0.0443635434
0.0370415966
0.0304898296
0.0246440429
0.0194432992
0.0148299235
0.0107495029
0.0071508870
0.0039861875
0.0012107785
-0.0012167037
-0.0033343607
-0.0051770316
-0.0067762933
-0.0081604604
-0.0093545854
-0.0103804583
-0.0112566070
-0.0119982970
-0.0126175318
-0.0131230523
-0.0135203374
-0.0138116035
-0.0139958049
-0.0140671278
-0.0140045913
-0.0138160203
-0.0135209539
-0.0131362511
-0.0126754004
-0.0121485198
-0.0115623568
-0.0109202885
-0.0102223213
-0.0094650913
-0.0086418640
-0.0077425343
-0.0067536268
-0.0056583256
-0.0044365405
-0.0030648301
-0.0015163826
0.0002389844
0.0022348237
0.0044858980
0.0069959420
0.0099580083
0.0135669729
0.0179980486
0.0234067855
0.0299290773
0.0376818993
0.0467639680
0.0572544932
0.0692130215
0.0826794367
0.0976739595
0.1141971479
0.1322344028
0.1518911650
0.1726836037
0.1939055962
0.2149047229
0.2350822672
0.2538932156
0.2708462577
0.2855037859
0.2974818961
0.3064503869
0.3121327600
0.3143062203
0.3128016757
0.3075037371
0.2983689688
0.2858008753
0.2705067137
0.2531512194
0.2343503465
0.2146694326
0.1946229329
0.1746744195
0.1552365822
0.1366712279
0.1192892812
0.1033507836
0.0890648944
0.0768386531
0.0678240798
0.0608440244
0.0545295534
0.0477221089
0.0394735060
0.0290459325
0.0159119493
-0.0002455102
-0.0195331392
-0.0418472584
-0.0668738153
-0.0940883849
-0.1227670168
-0.1477568115
-0.1536804993
-0.1275958327
-0.0612319128
0.0490110504
0.2020617374
0.3921777199
0.6089454602
0.8348618196
1.0290182446
1.1525206632
1.1830447398
1.1148761059
0.9589103601
0.7419983506
0.5005955824
0.2669618366
0.0644400418
-0.0925841404
-0.1986823148
-0.2543929548
-0.2647390019
-0.2441846705
-0.2053161777
-0.1583815567
-0.1112906567
-0.0696152177
-0.0365889938
-0.0131075872
0.0025579200
0.0137272416
0.0216667880
0.0273471908
0.0316186561
0.0352109644
0.0387334703
0.0426751031
0.0474043662
0.0531693402
0.0600977040
0.0681967233
0.0773532383
0.0873336636
0.0979043772
0.1093647725
0.1217940652
0.1352024156
0.1495798096
0.1648960579
0.1811007969
0.1981234884
0.2158741208
0.2342445897
0.2531070007
0.2723132846
0.2916951975
0.3110666218
0.3303479824
0.3493192838
0.3676756390
0.3851377316
0.4014518161
0.4163897174
0.4297488309
0.4413521230
0.4510481305
0.4587109608
0.4642402920
0.4675613729
0.4686250228
0.4674076317
0.4639111602
0.4581631396
0.4502166717
0.4401377192
0.4278908019
0.4136950398
0.3978359607
0.3805851907
0.3622008400
0.3429275039
0.3229962619
0.3026246782
0.2820168018
0.2613631660
0.2408407888
0.2206131730
0.2008303056
0.1816286595
0.1631312088
0.1454474257
0.1286732672
0.1128911751
0.0981700756
0.0845653796
0.0721272841
0.0608981065
0.0508160356
0.0418085951
0.0338055649
0.0267389806
0.0205426825
0.0151510682
0.0105003912
0.0065291606
0.0031781418
0.0003903556
-0.0018889211
-0.0037121555
-0.0051295592
-0.0061890876
-0.0069364405
-0.0074150618
-0.0076661394
-0.0077286056
-0.0076391367
-0.0074321530
-0.0071398192
-0.0067920440
-0.0064164802
-0.0060382304
-0.0056439700
-0.0052325039
-0.0048266665
-0.0044465937
-0.0041097228
-0.0038296189
-0.0036121614
-0.0034592077
-0.0033699165
-0.0033407479
-0.0033654636
-0.0034351266
-0.0035381017
-0.0036600547
-0.0037839533
-0.0038900663
-0.0039559643
-0.0039565219
-0.0038640149
-0.0036481437
-0.0032759179
-0.0027116483
-0.0019169476
-0.0008895348
0.0004138469
0.0022130757
0.0047135769
0.0080990009
0.0125312237
0.0181503463
0.0250737147
0.0333922021
0.0431735013
0.0544635300
0.0672864314
0.0816445738
0.0975185509
0.1148671816
0.1337611750
0.1538921592
0.1745031229
0.1948982321
0.2144463859
0.2325812166
0.2488010894
0.2626691026
0.2738130875
0.2819256085
0.2867639629
0.2881501813
0.2859710271
0.2801779969
0.2707872472
0.2579541109
0.2422917900
0.2244998627
0.2052225830
0.1850473408
0.1645038814
0.1440643043
0.1241430634
0.1050969672
0.0872251786
0.0707692149
0.0559129478
0.0427867066
0.0324758032
0.0246869444
0.0179889022
0.0111548618
0.0031621789
-0.0068076523
-0.0193689986
-0.0349320878
-0.0537030089
-0.0756837119
-0.1006720080
-0.1282615693
-0.1578437376
-0.1857039348
-0.1979987493
-0.1818905800
-0.1285800810
-0.0333060224
0.1046547097
0.2819871136
0.4913380715
0.7193982452
0.9281795594
1.0779270444
1.1432235044
1.1130504513
0.9907881038
0.7944283667
0.5582888476
0.3174483602
0.0984149226
-0.0809941369
-0.2116521802
-0.2905451228
-0.3186810189
-0.3104430746
-0.2790544326
-0.2355028050
-0.1885404726
-0.1446843298
-0.1082161455
-0.0811823873
-0.0633940926
-0.0524268676
-0.0446629225
-0.0390253353
-0.0347244373
-0.0310681626
-0.0274909463
-0.0235537253
-0.0189439372
-0.0134755215
-0.0070890195
0.0001482168
0.0080814737
0.0168350820
0.0265101571
0.0371542799
0.0487973035
0.0614513532
0.0751108262
0.0897523920
0.1053349922
0.1217998404
0.1390703923
0.1570521359
0.1756327179
0.1946834720
0.2141470256
0.2338357735
0.2534833872
0.2728366640
0.2916555269
0.3097130249
0.3267953328
0.3427017509
0.3572447058
0.3702497494
0.3815555599
0.3910139409
0.3984898220
0.4038612587
0.4070194322
0.4078686494
0.4063002281
0.4019540299
0.3949509586
0.3855604632
0.3740421816
0.3606460603
0.3456133145
0.3291759202
0.3115560475
0.2929660555
0.2736084923
0.2536760949
0.2333517893
0.2128086904
0.1922101020
0.1717095170
0.1514506171
0.1315672729
0.1121835762
0.0934139676
0.0753631261
0.0581259202
0.0417874070
0.0264228326
0.0120976321
-0.0011325705
-0.0132219623
-0.0241447595
-0.0339513426
-0.0427195544
-0.0505243879
-0.0574386961
-0.0635328343
-0.0688741496
-0.0735269750
-0.0775526290
-0.0810094156
-0.0839526244
-0.0864345305
-0.0885043947
-0.0902084632
-0.0915899679
-0.0926891261
-0.0935431410
-0.0941862008
-0.0946494799
-0.0949611377
-0.0951463196
-0.0952271562
-0.0952227639
-0.0951492447
-0.0950196860
-0.0948441607
-0.0946297275
-0.0943747456
-0.0940343615
-0.0936274438
-0.0931858383
-0.0927360903
-0.0922994375
-0.0918918106
-0.0915238329
-0.0912008205
-0.0909227822
-0.0906844197
-0.0904751271
-0.0902789915
-0.0900747928
-0.0898359921
-0.0895306487
-0.0891214677
-0.0885658462
-0.0878158746
-0.0868183356
-0.0855147048
-0.0838411506
-0.0817285341
-0.0791024090
-0.0759837532
-0.0722187820
-0.0674966738
-0.0615630673
-0.0542205742
-0.0453300476
-0.0348106114
-0.0226396606
-0.0088528613
0.0064558495
0.0231342637
0.0409719023
0.0597000152
0.0789915812
0.0984613082
0.1176816443
0.1361627665
0.1532064906
0.1681853396
0.1805761932
0.1899602883
0.1960232184
0.1985549341
0.1974497429
0.1927063090
0.1844276537
0.1727796792
0.1582070389
0.1413157164
0.1226815054
0.1028511526
0.0823423986
0.0616439787
0.0412156222
0.0214880528
0.0028629885
-0.0143569872
-0.0303247579
-0.0446890880
-0.0571548819
-0.0676358992
-0.0762550294
-0.0833442248
-0.0894442796
-0.0953048246
-0.1018843268
-0.1103500895
-0.1220782524
-0.1386537914
-0.1638991428
-0.2058898535
-0.2519803790
-0.2888400770
-0.3057275950
-0.2944910011
-0.2495689500
-0.1679907263
-0.0493762446
0.1040639503
0.2875286837
0.4936261510
0.7118696305
0.9091429385
1.0418196768
1.0840293226
1.0272776483
0.8804467216
0.6696045729
0.4296618007
0.1928292441
-0.0162095172
-0.1815081044
-0.2958573396
-0.3604401119
-0.3786936067
-0.3628632002
-0.3261955572
-0.2795753005
-0.2315259286
-0.1882098172
-0.1534273007
-0.1286098329
-0.1120241344
-0.1010995371
-0.0940514552
-0.0893729626
-0.0858347934
-0.0824853411
-0.0786506594
-0.0739344616
-0.0682181113
-0.0616603211
-0.0546429105
-0.0469717916
-0.0384545841
-0.0290305843
-0.0186544457
-0.0072961789
0.0050588478
0.0184099093
0.0327409228
0.0480204486
0.0642017040
0.0812229581
0.0990075777
0.1175237193
0.1367541977
0.1564488407
0.1763556760
0.1962328390
0.2158485731
0.2349812291
0.2534192656
0.2709612492
0.2874158541
0.3026018622
0.3163481633
0.3284937547
0.3388877416
0.3473893372
0.3538678620
0.3582027445
0.3602835210
0.3600098354
0.3572040479
0.3515907590
0.3434167574
0.3329658777
0.3205103093
0.3063105236
0.2906156306
0.2736634015
0.2556802695
0.2368813293
0.2174703373
0.1976397117
0.1775705322
0.1574325403
0.1373841390
0.1175723932
0.0981330268
0.0791901752
0.0608561768
0.0432319826
0.0264072052
0.0104601189
-0.0045423404
-0.0185445752
-0.0315023260
-0.0433826720
-0.0541640305
-0.0638396995
-0.0724592729
-0.0801017092
-0.0868423281
-0.0927532397
-0.0979034077
-0.1023586495
-0.1061816360
-0.1094318920
-0.1121657956
-0.1144365788
-0.1162943271
-0.1177859797
-0.1189553294
-0.1198430228
-0.1204865598
-0.1209202943
-0.1211754337
-0.1212800389
-0.1212590246
-0.1211341591
-0.1209240644
-0.1206442160
-0.1203069431
-0.1199200212
-0.1194531361
-0.1189126763
-0.1183247607
-0.1177126134
-0.1170956000
-0.1164891388
-0.1159047010
-0.1153498108
-0.1148280448
-0.1143390329
-0.1138784575
-0.1134380538
-0.1130056101
-0.1125649672
-0.1120960188
-0.1115745289
-0.1109717836
-0.1102550259
-0.1093875515
-0.1083287088
-0.1070338992
-0.1054545769
-0.1035382489
-0.1012600253
-0.0986689582
-0.0954861991
-0.0914250112
-0.0862461608
-0.0797575841
-0.0718151166
-0.0623225715
-0.0512317395
-0.0385423890
-0.0243022662
-0.0086070948
0.0083994237
0.0265256104
0.0455318084
0.0651303833
0.0849868750
0.1045836884
0.1232225519
0.1402704329
0.1551741796
0.1674605212
0.1767360681
0.1826873112
0.1850806229
0.1837622561
0.1786530662
0.1699120718
0.1579769066
0.1433142164
0.1264070285
0.1077543488
0.0878711114
0.0672881781
0.0465523393
0.0262263131
0.0067879103
-0.0115473144
-0.0284084275
-0.0435304157
-0.0567761704
-0.0681364884
-0.0777301426
-0.0858041488
-0.0927335279
-0.0990212059
-0.1052980140
-0.1123226885
-0.1206073865
-0.1325954872
-0.1509001054
-0.1760220856
-0.2063446291
-0.2381333045
-0.2655377804
-0.2806403217
-0.2772876098
-0.2426554666
-0.1651292638
-0.0402073265
0.1294990665
0.3342656827
0.5572553363
0.7745126231
0.9527575183
1.0567382921
1.0661964988
0.9776232013
0.8042589714
0.5760938892
0.3347071357
0.1080915369
-0.0839329822
-0.2289482816
-0.3221603437
-0.3663992736
-0.3695683013
-0.3421093505
-0.2979662231
-0.2482619347
-0.2011507664
-0.1618247991
-0.1325150211
-0.1123011973
-0.0978399935
-0.0876528661
-0.0806586203
-0.0758903519
-0.0724954485
-0.0697355883
-0.0669867410
-0.0637391675
-0.0595974291
-0.0542804546
-0.0476214998
-0.0395681118
-0.0301821291
-0.0196396812
-0.0082311888
0.0038074090
0.0168717526
0.0310206795
0.0462404128
0.0624980078
0.0797379932
0.0978767986
0.1168102237
0.1364149066
0.1565483232
0.1770487874
0.1977354514
0.2184083053
0.2388481772
0.2588167335
0.2780564782
0.2963714760
0.3135835378
0.3294164022
0.3436258857
0.3560008860
0.3663633821
0.3745684347
0.3805041859
0.3840918591
0.3852857594
0.3840732730
0.3804748679
0.3745440933
0.3663675815
0.3560672050
0.3438043607
0.3297747232
0.3141237752
0.2970117633
0.2787296430
0.2595520300
0.2397360836
0.2195215066
0.1991305451
0.1787679890
0.1586211715
0.1388599693
0.1196368219
0.1010869806
0.0833284389
0.0664617385
0.0505699644
0.0357187455
0.0219562537
0.0093418963
-0.0020285705
-0.0122175511
-0.0213001355
-0.0293486348
-0.0364337897
-0.0426276216
-0.0480002243
-0.0526189124
-0.0565482216
-0.0598499084
-0.0625829503
-0.0648035458
-0.0665651143
-0.0679182962
-0.0689109526
-0.0695881659
-0.0699922392
-0.0701626967
-0.0701362833
-0.0699469650
-0.0696259289
-0.0692015828
-0.0686995555
-0.0681426968
-0.0675510774
-0.0669419889
-0.0663299440
-0.0657266761
-0.0651411399
-0.0645782959
-0.0640357275
-0.0634630617
-0.0628414290
-0.0622061956
-0.0615849045
-0.0609972749
-0.0604552026
-0.0599627600
-0.0595161960
-0.0591039356
-0.0587065809
-0.0582969101
-0.0578398859
-0.0572928833
-0.0566057208
-0.0557204079
-0.0545711306
-0.0530842514
-0.0511783094
-0.0487640198
-0.0457442749
-0.0420141430
-0.0374608690
-0.0319638746
-0.0253959787
-0.0176273900
-0.0085218847
0.0020645846
0.0142838887
0.0283337905
0.0445426189
0.0625631490
0.0819215155
0.1021527741
0.1228009006
0.1434187918
0.1635682648
0.1828200572
0.2007538275
0.2169581544
0.2310305373
0.2425773961
0.2512140715
0.2565648244
0.2582628365
0.2559502099
0.2493538033
0.2389331006
0.2254405436
0.2095736857
0.1919774647
0.1732416875
0.1538999489
0.1344296310
0.1152519038
0.0967317247
0.0791778388
0.0628427787
0.0479228647
0.0345582045
0.0228326937
0.0127740152
0.0045825161
-0.0010182501
-0.0057412218
-0.0113478420
-0.0192259329
-0.0303896961
-0.0454797128
-0.0647629434
-0.0881327276
-0.1151087848
-0.1448372134
-0.1770664530
-0.2011139194
-0.2006125087
-0.1640317239
-0.0847489090
0.0389507507
0.2038742293
0.4019206598
0.6200813346
0.8394148158
1.0226953352
1.1313788762
1.1442717397
1.0579989635
0.8870043230
0.6629351520
0.4216166412
0.1926724345
-0.0021117185
-0.1494929672
-0.2447713603
-0.2914951035
-0.2952158296
-0.2688087570
-0.2256746030
-0.1764949710
-0.1292321037
-0.0891276044
-0.0587033837
-0.0376827536
-0.0225174617
-0.0113640105
-0.0032712093
0.0026195020
0.0070740527
0.0107657416
0.0142752368
0.0180905758
0.0226071653
0.0281277815
0.0348624236
0.0429280559
0.0523489420
0.0630567153
0.0748903782
0.0875963028
0.1009233321
0.1151963819
0.1304742102
0.1467147372
0.1638577776
0.1818248188
0.2005176914
0.2198194600
0.2395950814
0.2596914070
0.2799371827
0.3001430493
0.3201015421
0.3395870908
0.3583560200
0.3761511192
0.3928227985
0.4081534943
0.4218964964
0.4338383388
0.4437987998
0.4516309021
0.4572209126
0.4604883424
0.4613859471
0.4598997264
0.4560489244
0.4498860295
0.4414967742
0.4310001356
0.4185484168
0.4043278151
0.3885580818
0.3714892065
0.3532554318
0.3340656317
0.3141949491
0.2938985564
0.2734116546
0.2529494738
0.2327072733
0.2128603411
0.1935639943
0.1749535790
0.1571445676
0.1402329011
0.1242946730
0.1093860061
0.0955430521
0.0827819916
0.0710990344
0.0605016501
0.0510194806
0.0425784278
0.0351014996
0.0285147292
0.0227473257
0.0177315947
0.0134028496
0.0096994101
0.0065626028
0.0039367610
0.0017692244
0.0000103396
-0.0013865403
-0.0024650556
-0.0032658396
-0.0038265194
-0.0041817151
-0.0043630402
-0.0043991019
-0.0043155002
-0.0041348288
-0.0038766746
-0.0035576180
-0.0031912326
-0.0027880853
-0.0023442136
-0.0018533679
-0.0013316467
-0.0007926691
-0.0002471103
0.0002972481
0.0008354457
0.0013653427
0.0018876194
0.0024057768
0.0029261359
0.0034578384
0.0040128462
0.0046059416
0.0052547272
0.0059796262
0.0068038819
0.0077535028
0.0088569028
0.0101451282
0.0116422108
0.0133342683
0.0153811375
0.0179669415
0.0212611217
0.0254184380
0.0305789682
0.0368681089
0.0443965328
0.0532597315
0.0635381843
0.0752976831
0.0885893381
0.1034495776
0.1199001484
0.1380519944
0.1577233151
0.1782498892
0.1990008840
0.2193883771
0.2388673566
0.2569357216
0.2731342816
0.2870467568
0.2982997779
0.3065628865
0.3115485345
0.3130120848
0.3107518106
0.3046048928
0.2945963133
0.2813607529
0.2655993505
0.2479610964
0.2290428202
0.2093891945
0.1894927437
0.1697938442
0.1506807245
0.1324894652
0.1155039988
0.0999561101
0.0860254356
0.0738394640
0.0633521736
0.0543781541
0.0468194551
0.0403165110
0.0342393121
0.0276872970
0.0194890976
0.0082025337
-0.0078853873
-0.0305909882
-0.0594406922
-0.0910778590
-0.1203415836
-0.1402924464
-0.1422124541
-0.1159407187
-0.0539706856
0.0528322591
0.2070114120
0.4021213500
0.6227279303
0.8444082988
1.0350695628
1.1583760663
1.1897575912
1.1218861991
0.9646762313
0.7452843093
0.5040944863
0.2710226055
0.0677549654
-0.0912903265
-0.1992252450
-0.2566918477
-0.2711740085
-0.2512923451
-0.2106123936
-0.1612102305
-0.1121914961
-0.0696914896
-0.0368769125
-0.0139456971
0.0015647695
0.0120015034
0.0189719053
0.0238383235
0.0277129978
0.0314580590
0.0356855296
0.0407573231
0.0467852448
0.0536309909
0.0609872018
0.0690683209
0.0780098154
0.0878633700
0.0986666647
0.1104433917
0.1232032550
0.1369419708
0.1516412678
0.1672688862
0.1837785789
0.2011337466
0.2193937826
0.2383783587
0.2578660895
0.2776406625
0.2974907499
0.3172100079
0.3365970773
0.3554555831
0.3735941346
0.3908263254
0.4069707335
0.4218509211
0.4352954350
0.4471378061
0.4572165495
0.4653751649
0.4714621362
0.4753309316
0.4768400037
0.4757090153
0.4717138204
0.4651124304
0.4561673583
0.4451320296
0.4322507828
0.4177588234
0.4018809732
0.3848315176
0.3668155786
0.3480291909
0.3286593021
0.3088837728
0.2888713762
0.2687817985
0.2487656387
0.2289644086
0.2095105329
0.1905273491
0.1721291075
0.1544209739
0.1374992169
0.1214513368
0.1063557767
0.0922818929
0.0792899542
0.0674311427
0.0567371408
0.0471538172
0.0385990023
0.0309942847
0.0242643769
0.0183378073
0.0131470915
0.0086279041
0.0047190236
0.0013623325
-0.0014971829
-0.0039114323
-0.0059292215
-0.0075962524
-0.0089551230
-0.0100453274
-0.0109032556
-0.0115621939
-0.0120523246
-0.0124007261
-0.0126313729
-0.0127651355
-0.0128197806
-0.0128099708
-0.0127472649
-0.0126401180
-0.0124938808
-0.0123108006
-0.0120796000
-0.0117904194
-0.0114640591
-0.0111187426
-0.0107685648
-0.0104234361
-0.0100890830
-0.0097670474
-0.0094546871
-0.0091451758
-0.0088275028
-0.0084864731
-0.0081027075
-0.0076526427
-0.0071085309
-0.0064384403
-0.0056063023
-0.0045719897
-0.0032912115
-0.0017154925
0.0001785215
0.0024247646
0.0052531775
0.0088811658
0.0134973340
0.0192614850
0.0263046212
0.0347289676
0.0446079847
0.0559863349
0.0688798793
0.0832756780
0.0991319895
0.1163782711
0.1349555107
0.1547911994
0.1751979642
0.1954611193
0.2149321374
0.2330286501
0.2492344473
0.2630994779
0.2742398490
0.2823378267
0.2871418355
0.2884664586
0.2861924378
0.2802666736
0.2706996936
0.2577012288
0.2419225438
0.2240361583
0.2046634815
0.1843751877
0.1636903987
0.1430765943
0.1229496134
0.1036736530
0.0855612688
0.0688733749
0.0538192441
0.0406836008
0.0299231514
0.0209176447
0.0129324041
0.0052512378
-0.0028235680
-0.0119712721
-0.0228526567
-0.0361100186
-0.0523671702
-0.0722294387
-0.0962836666
-0.1250982114
-0.1590261076
-0.1891947565
-0.2013039487
-0.1843445263
-0.1307484693
-0.0363880710
0.0994241661
0.2739355307
0.4809531021
0.7083410583
0.9189172519
1.0725998929
1.1431512022
1.1183084888
0.9997841504
0.8047660486
0.5696411249
0.3293758284
0.1104150055
-0.0693204466
-0.2003430352
-0.2760912315
-0.3045261789
-0.2989808152
-0.2710179956
-0.2304304930
-0.1852409976
-0.1417021142
-0.1042958587
-0.0757330873
-0.0568721572
-0.0448703665
-0.0371259631
-0.0320836382
-0.0284670418
-0.0252787829
-0.0218004292
-0.0175925072
-0.0124945023
-0.0066248587
-0.0002597380
0.0068379347
0.0147848148
0.0236400604
0.0334493622
0.0442449761
0.0560457235
0.0688569913
0.0826707317
0.0974654626
0.1132062671
0.1298447942
0.1474170290
0.1658532204
0.1849347975
0.2044467604
0.2241779600
0.2439210979
0.2634727262
0.2826332478
0.3012069161
0.3190018353
0.3358299602
0.3515070961
0.3658528991
0.3786908760
0.3898483841
0.3991566315
0.4064506769
0.4115694294
0.4143556492
0.4145618935
0.4119786239
0.4068112256
0.3992777314
0.3895912822
0.3779601275
0.3645876262
0.3496729855
0.3334124970
0.3159978868
0.2976159890
0.2784487463
0.2586732094
0.2384615376
0.2179809980
0.1973939666
0.1768579271
0.1565254720
0.1365443016
0.1170572248
0.0982021587
0.0801121502
0.0629156224
0.0467362875
0.0316929697
0.0178946100
0.0053432970
-0.0060378022
-0.0163227475
-0.0255830691
-0.0338877677
-0.0413033148
-0.0478940128
-0.0537227161
-0.0588499512
-0.0633337155
-0.0672294763
-0.0705901717
-0.0734662100
-0.0759054700
-0.0779533008
-0.0796525222
-0.0810434241
-0.0821637670
-0.0830487818
-0.0837311697
-0.0842411024
-0.0846062221
-0.0848516413
-0.0849999430
-0.0850711805
-0.0850828777
-0.0850500286
-0.0849850980
-0.0848975191
-0.0847465583
-0.0845258779
-0.0842650731
-0.0839888423
-0.0837169131
-0.0834640224
-0.0832399167
-0.0830493523
-0.0828920946
-0.0827629188
-0.0826516094
-0.0825429605
-0.0824167757
-0.0822478683
-0.0820060607
-0.0816561851
-0.0811580956
-0.0804669616
-0.0795332804
-0.0783025736
-0.0767153722
-0.0747072169
-0.0722207481
-0.0692894471
-0.0656626778
-0.0610527826
-0.0552250025
-0.0479971671
-0.0392388262
-0.0288721478
-0.0168721985
-0.0032669427
0.0118627564
0.0283831377
0.0461075415
0.0647964099
0.0841572868
0.1038464805
0.1234921366
0.1424227522
0.1599367644
0.1754274452
0.1883829007
0.1983860716
0.2051147329
0.2083414941
0.2079337993
0.2038539267
0.1961583332
0.1849707604
0.1707811964
0.1542013684
0.1358128448
0.1161659447
0.0957807789
0.0751476309
0.0547269570
0.0349493866
0.0162157216
-0.0011033376
-0.0170055863
-0.0314009483
-0.0440128679
-0.0547593054
-0.0637527367
-0.0713001540
-0.0779030612
-0.0842572297
-0.0912525479
-0.0999733846
-0.1116986244
-0.1279016676
-0.1502504306
-0.1802532881
-0.2139479048
-0.2437776393
-0.2620677331
-0.2610589547
-0.2329070073
-0.1696830495
-0.0633353917
0.0933866508
0.2895184983
0.5054572241
0.7186414502
0.9035513475
1.0317086358
1.0716765835
1.0008488538
0.8428962623
0.6311573436
0.3957473030
0.1635582238
-0.0417409325
-0.2003585621
-0.3065179272
-0.3647306832
-0.3814219497
-0.3648546907
-0.3251297153
-0.2741856770
-0.2251202829
-0.1841295512
-0.1520275309
-0.1287643754
-0.1134559322
-0.1043837440
-0.0989950474
-0.0946005251
-0.0906549893
-0.0867876450
-0.0826754257
-0.0780668710
-0.0727821260
-0.0667129418
-0.0598226753
-0.0521390123
-0.0436235305
-0.0341943909
-0.0237940417
-0.0123842848
0.0000537236
0.0135194733
0.0279931000
0.0434353852
0.0597877565
0.0769722874
0.0948918629
0.1134310396
0.1324554114
0.1518112192
0.1713266656
0.1909153197
0.2103629211
0.2293718292
0.2476663426
0.2649926990
0.2811190755
0.2958355884
0.3089542931
0.3203091844
0.3297561962
0.3371732015
0.3424600129
0.3455383818
0.3463519990
0.3448664947
0.3410694380
0.3349563560
0.3264045791
0.3155994241
0.3028142273
0.2883115987
0.2723414131
0.2551421501
0.2369418937
0.2179583355
0.1983987752
0.1784601206
0.1583288872
0.1381811984
0.1181827857
0.0984889884
0.0792447539
0.0605846374
0.0426328020
0.0255030188
0.0092987082
-0.0058869326
-0.0199710553
-0.0328738770
-0.0445589305
-0.0550969620
-0.0645641591
-0.0730343364
-0.0805789352
-0.0872670240
-0.0931650212
-0.0983347628
-0.1028346535
-0.1067207188
-0.1100466107
-0.1128636081
-0.1152206171
-0.1171641705
-0.1187384280
-0.1199851763
-0.1209438290
-0.1216514265
-0.1221426362
-0.1224497525
-0.1226026964
-0.1226290162
-0.1225538869
-0.1224001102
-0.1221881152
-0.1219359576
-0.1216593199
-0.1213473246
-0.1209577297
-0.1205155177
-0.1200449782
-0.1195661213
-0.1190952826
-0.1186448070
-0.1182226886
-0.1178325671
-0.1174737277
-0.1171411015
-0.1168252651
-0.1165124408
-0.1161844966
-0.1158189460
-0.1153889484
-0.1148633086
-0.1142064772
-0.1133785505
-0.1123352487
-0.1110277927
-0.1094029891
-0.1074032901
-0.1049732348
-0.1021949148
-0.0988457484
-0.0946079884
-0.0892178922
-0.0824657216
-0.0741957753
-0.0643066936
