ECG
1.0452347464
0.9971180537
0.8724172495
0.6948284003
0.4900641904
0.2846921980
0.1031405375
-0.0429060919
-0.1482851196
-0.2118362105
-0.2364020898
-0.2288285426
-0.1996237747
-0.1588407130
-0.1148384594
-0.0739301562
-0.0401908475
-0.0154574790
0.0006711014
0.0108341442
0.0181919338
0.0235055295
0.0276426536
0.0313049369
0.0350254552
0.0391687294
0.0439308380
0.0493398136
0.0552717229
0.0617827662
0.0689796881
0.0769164240
0.0856352640
0.0951668523
0.1055301876
0.1167326231
0.1287698662
0.1416259789
0.1552733774
0.1696728326
0.1847734695
0.2005459395
0.2170289945
0.2340381374
0.2513678976
0.2688200823
0.2862037769
0.3033353443
0.3200384255
0.3361439397
0.3514900835
0.3659223818
0.3792938747
0.3914649485
0.4023032677
0.4116837744
0.4194886887
0.4256075088
0.4299370105
0.4323812479
0.4328515527
0.4312338718
0.4272411661
0.4210224906
0.4128181115
0.4028588375
0.3913660197
0.3785515515
0.3646178687
0.3497579497
0.3341553149
0.3179840274
0.3014086925
0.2845844580
0.2676570140
0.2507625931
0.2340277318
0.2175681384
0.2014895738
0.1858883410
0.1708512852
0.1564557940
0.1427697976
0.1298517682
0.1177507207
0.1065062122
0.0961483424
0.0866977532
0.0781656289
0.0705531803
0.0638219450
0.0579054407
0.0527392061
0.0482613812
0.0444127070
0.0411365257
0.0383787807
0.0360880162
0.0342153780
0.0327146126
0.0315420677
0.0306569948
0.0300232456
0.0296080892
0.0293813988
0.0293156487
0.0293859144
0.0295698723
0.0298478001
0.0302025765
0.0306196814
0.0310871958
0.0315958018
0.0321387827
0.0327261589
0.0333676964
0.0340460339
0.0347463025
0.0354564545
0.0361672642
0.0368723271
0.0375680606
0.0382537034
0.0389313159
0.0396057801
0.0402847996
0.0409786953
0.0416990983
0.0424597833
0.0432773433
0.0441711931
0.0451635688
0.0462795283
0.0475469510
0.0489965378
0.0506618113
0.0525791156
0.0547593762
0.0572408543
0.0602182287
0.0638717499
0.0683581267
0.0738105258
0.0803385726
0.0880283506
0.0969424016
0.1071197257
0.1185757811
0.1313024845
0.1452682109
0.1604177933
0.1766743182
0.1940625351
0.2121604474
0.2303468299
0.2480566080
0.2647808578
0.2800668058
0.2935178295
0.3047934568
0.3136093662
0.3197373870
0.3230054991
0.3232978327
0.3205546692
0.3147724403
0.3060012511
0.2945161408
0.2808917656
0.2656831371
0.2494005540
0.2325096023
0.2154311550
0.1985413722
0.1821717013
0.1666088765
0.1520948600
0.1388263263
0.1269549158
0.1166935410
0.1086757720
0.1022752447
0.0966793102
0.0911477496
0.0850127742
0.0776790254
0.0686235748
0.0573959239
0.0436180045
0.0269841785
0.0072612378
-0.0157115953
-0.0420269883
-0.0675652222
-0.0806713672
-0.0713818021
-0.0325470970
0.0401679868
0.1482844964
0.2905092879
0.4627350258
0.6569374159
0.8467395463
0.9990077327
1.0897015751
1.1042202697
1.0374000020
0.8951814728
0.7056364187
0.4992164456
0.3008072496
0.1297286171
-0.0007011149
-0.0872400913
-0.1328288680
-0.1426944393
-0.1242930791
-0.0873103407
-0.0434966600
-0.0017740535
0.0341077816
0.0621006365
0.0817173119
0.0940316178
0.1016775802
0.1073169081
0.1117117231
0.1155574185
0.1193892984
0.1235839313
0.1283591780
0.1337741913
0.1397566423
0.1463780740
0.1537178168
0.1618254432
0.1707394488
0.1804872529
0.1910851979
0.2025385498
0.2148414978
0.2279771546
0.2419175562
0.2566378866
0.2722000620
0.2884709403
0.3052696997
0.3224178048
0.3397390072
0.3570593450
0.3742071432
0.3910132183
0.4073135929
0.4229485656
0.4377607269
0.4515949539
0.4642984106
0.4757205477
0.4857131025
0.4941300990
0.5008278480
0.5056649470
0.5085022802
0.5091274448
0.5073232026
0.5032715051
0.4971737828
0.4892264559
0.4796209344
0.4685436183
0.4561758973
0.4426941511
0.4282697491
0.4130690508
0.3972534053
0.3809791517
0.3643974333
0.3476511049
0.3308752028
0.3141996623
0.2977494084
0.2816443563
0.2659994107
0.2509244663
0.2365244078
0.2228991095
0.2101434357
0.1983472405
0.1875953680
0.1779296450
0.1692761900
0.1615679824
0.1547407354
0.1487320406
0.1434813672
0.1389300627
0.1350213525
0.1317003400
0.1289140067
0.1266112119
0.1247426931
0.1232611324
0.1221225902
0.1212867044
0.1207151308
0.1203714030
0.1202209326
0.1202310093
0.1203708009
0.1206113530
0.1209255892
0.1212883115
0.1216761993
0.1220750435
0.1224962624
0.1229291174
0.1233615445
0.1237831331
0.1241851263
0.1245604207
0.1249035663
0.1252107669
0.1254798795
0.1257104147
0.1259035368
0.1260620634
0.1261905301
0.1262967636
0.1263919728
0.1264891031
0.1266027534
0.1267491761
0.1269462771
0.1272136157
0.1275724050
0.1280326071
0.1285856011
0.1293514019
0.1304618485
0.1320431518
0.1342158949
0.1370950328
0.1407898925
0.1454041730
0.1510359454
0.1577776529
0.1657161104
0.1749325052
0.1855023964
0.1974957151
0.2109847430
0.2261729568
0.2427110429
0.2600574998
0.2777012801
0.2951620137
0.3119900076
0.3277662458
0.3421023896
0.3546407775
0.3650544250
0.3730470248
0.3783529467
0.3807372378
0.3799956222
0.3759545012
0.3685270793
0.3581263495
0.3453628282
0.3308039411
0.3149731177
0.2983497912
0.2813693985
0.2644233799
0.2478591795
0.2319802452
0.2170460814
0.2032742691
0.1908410931
0.1798790229
0.1703965730
0.1622301689
0.1553396416
0.1494819036
0.1441901601
0.1387739084
0.1323189384
0.1236873322
0.1115174646
0.0942256020
0.0710068851
0.0441292876
0.0176182258
-0.0030775876
-0.0110861439
0.0018878621
0.0436481681
0.1208779160
0.2388726427
0.3951632819
0.5793802646
0.7732535065
0.9513163866
1.0835129595
1.1409453536
1.1105897684
0.9965741993
0.8199175323
0.6136918293
0.4106004767
0.2343963051
0.0992728560
0.0110093478
-0.0283265089
-0.0310266237
-0.0098076018
0.0247225553
0.0640644490
0.1018272841
0.1337288684
0.1575956130
0.1733625324
0.1834872480
0.1905228009
0.1954631808
0.1991560154
0.2023135219
0.2055122852
0.2091931214
0.2136614061
0.2190871071
0.2255047846
0.2328135913
0.2407786946
0.2494133129
0.2589152253
0.2693166961
0.2806304416
0.2928496305
0.3059478839
0.3198792751
0.3345783296
0.3499600255
0.3659197929
0.3823335144
0.3991272258
0.4162295425
0.4333477534
0.4502001074
0.4665244793
0.4820783703
0.4966389107
0.5100031351
0.5219885867
0.5324328763
0.5411932561
0.5481466046
0.5531894264
0.5562378526
0.5572276404
0.5561141734
0.5528724612
0.5474971399
0.5399297267
0.5301592618
0.5184612932
0.5051086234
0.4903609789
0.4744650102
0.4576542917
0.4401493221
0.4221575237
0.4038732432
0.3854777510
0.3671392417
0.3490128339
0.3312405737
0.3139519179
0.2972642225
0.2812818839
0.2660962222
0.2517854816
0.2384148306
0.2260363614
0.2146892219
0.2043985974
0.1951195529
0.1867849890
0.1793300646
0.1726921974
0.1668110633
0.1616285966
0.1570889904
0.1531386961
0.1497264234
0.1468031407
0.1443220749
0.1422387111
0.1405107932
0.1390983233
0.1379635621
0.1370710252
0.1363867184
0.1358768830
0.1355093317
0.1352542584
0.1350995669
0.1350380034
0.1350567502
0.1351442530
0.1352902214
0.1354856286
0.1357227114
0.1359949706
0.1362971704
0.1366253386
0.1369767670
0.1373500108
0.1377448891
0.1381624846
0.1386051436
0.1390764763
0.1395813562
0.1401259210
0.1407174580
0.1413613169
0.1420850376
0.1429334896
0.1439618959
0.1452356925
0.1468305030
0.1488321378
0.1513365950
0.1544500599
0.1582889051
0.1629796906
0.1686591634
0.1754742583
0.1835820970
0.1931620595
0.2044390197
0.2172912188
0.2314930266
0.2467882143
0.2628899547
0.2794808223
0.2962127929
0.3127072442
0.3285549552
0.3433161065
0.3565202802
0.3676664607
0.3762234045
0.3816304779
0.3833011686
0.3810672256
0.3753503665
0.3666029760
0.3552724650
0.3418012706
0.3266268562
0.3101817113
0.2928933517
0.2751843196
0.2574721833
0.2401695371
0.2236840020
0.2084182248
0.1947633520
0.1825677593
0.1718503965
0.1627713557
0.1552391357
0.1489106430
0.1431911911
0.1372345009
0.1299427002
0.1199662928
0.1057040896
0.0853462934
0.0593560678
0.0314990116
0.0070264507
-0.0073923166
-0.0036700189
0.0276985878
0.0949951986
0.2031389178
0.3523000228
0.5330931353
0.7265421969
0.9040804695
1.0303975235
1.0787408829
1.0325271994
0.8953132313
0.6917362063
0.4675138211
0.2711178032
0.1092820974
-0.0088543105
-0.0798046956
-0.1063619510
-0.0975997928
-0.0661019813
-0.0238790864
0.0187668619
0.0550271905
0.0815865835
0.0986230819
0.1094030082
0.1162654114
0.1207075237
0.1239952133
0.1270661980
0.1305300457
0.1346681742
0.1394338509
0.1447102568
0.1506918442
0.1574465035
0.1650278388
0.1734768607
0.1828219862
0.1930790384
0.2042512470
0.2163292480
0.2292956014
0.2432606167
0.2581390169
0.2737310126
0.2898387978
0.3062665494
0.3228204278
0.3393085765
0.3555411223
0.3713301751
0.3864898282
0.4008361579
0.4141872240
0.4263630694
0.4371857200
0.4464791853
0.4540694579
0.4597845135
0.4634543110
0.4649107929
0.4639069879
0.4603174077
0.4543744991
0.4463138996
0.4363647730
0.4247494125
0.4116818878
0.3973695788
0.3820134993
0.3658081897
0.3489417166
0.3315956729
0.3139451777
0.2961588766
0.2783989413
0.2608210697
0.2435744862
0.2268019414
0.2106397122
0.1952176016
0.1806589391
0.1670805804
0.1545929075
0.1432742730
0.1330695538
0.1239026914
0.1157014097
0.1083957898
0.1019182698
0.0962036448
0.0911892568
0.0868157755
0.0830265372
0.0797672358
0.0769859218
0.0746330032
0.0726612449
0.0710257688
0.0696840542
0.0685959372
0.0677236111
0.0670316264
0.0664868905
0.0660586679
0.0657185804
0.0654406068
0.0652172484
0.0650761475
0.0649975546
0.0649611322
0.0649498782
0.0649501260
0.0649515444
0.0649471377
0.0649332456
0.0649094457
0.0648780550
0.0648442032
0.0648161695
0.0648055660
0.0648273402
0.0648997752
0.0650444896
0.0652864372
0.0656539074
0.0661785251
0.0668952504
0.0678423793
0.0690559815
0.0705044368
0.0723851973
0.0749474372
0.0784045643
0.0829342200
0.0886782788
0.0957428491
0.1041982725
0.1140791240
0.1253842123
0.1380765794
0.1520835994
0.1672975261
0.1836093210
0.2009292907
0.2184860798
0.2354755039
0.2511949486
0.2650433684
0.2765212872
0.2852307985
0.2908755648
0.2932608182
0.2922933601
0.2879815612
0.2804353615
0.2698662704
0.2565722972
0.2410348540
0.2240009668
0.2061571486
0.1881039440
0.1703559288
0.1533417101
0.1374039263
0.1227992471
0.1096982666
0.0981848322
0.0882568088
0.0798264008
0.0727961958
0.0669693379
0.0613295042
0.0547595369
0.0461196463
0.0342474098
0.0179577729
-0.0039569517
-0.0318806883
-0.0599343436
-0.0798823132
-0.0834685050
-0.0624164379
-0.0084292420
0.0870514750
0.2285684379
0.4028211996
0.5899758928
0.7659272322
0.9022985145
0.9664416187
0.9300045656
0.8090051236
0.6338316809
0.4327845952
0.2320594869
0.0557472387
-0.0761584341
-0.1607236658
-0.2026148833
-0.2083329754
-0.1863103278
-0.1469108234
-0.1024298393
-0.0637543042
-0.0330930051
-0.0105811958
0.0044225528
0.0133363527
0.0183549989
0.0221523674
0.0256044233
0.0290094672
0.0326630797
0.0367951088
0.0415696696
0.0470850703
0.0533731594
0.0604122377
0.0682498445
0.0769569056
0.0865816615
0.0971519090
0.1086750013
0.1211378481
0.1345069155
0.1487282260
0.1637273586
0.1794094484
0.1956591872
0.2123408231
0.2292981607
0.2463545610
0.2633443186
0.2801504283
0.2964861617
0.3120705835
0.3266486834
0.3399913766
0.3518955038
0.3621838309
0.3707051398
0.3773351508
0.3819761437
0.3845563334
0.3850298603
0.3833767899
0.3796031134
0.3737407470
0.3657950483
0.3558007640
0.3440166270
0.3307003661
0.3160987235
0.3004474542
0.2839713268
0.2668841228
0.2493886370
0.2316766773
0.2139290649
0.1963156340
0.1789952322
0.1621157200
0.1458139714
0.1302158733
0.1154363260
0.1015791602
0.0887361528
0.0769972903
0.0663591855
0.0567613657
0.0481444357
0.0404500924
0.0336211246
0.0276014133
0.0223359315
0.0177707439
0.0138530078
0.0105309720
0.0077539776
0.0054724577
0.0036379374
0.0022030337
0.0011214559
0.0003480051
-0.0001614255
-0.0004498507
-0.0005591933
-0.0005302840
-0.0004028614
-0.0002155691
0.0000328568
0.0003538990
0.0007290156
0.0011419427
0.0015786809
0.0020274955
0.0024789164
0.0029257384
0.0033630207
0.0037880872
0.0042005265
0.0046021917
0.0049972009
0.0053919365
0.0057950457
0.0062174403
0.0066722968
0.0071750564
0.0077434248
0.0083973724
0.0091591344
0.0100532104
0.0111063649
0.0123025286
0.0136458365
0.0153500505
0.0176167465
0.0206245507
0.0245294455
0.0294648310
0.0355415389
0.0428478325
0.0514494067
0.0613893879
0.0726883342
0.0853442353
0.0993325123
0.1146060180
0.1311337634
0.1486319164
0.1663933047
0.1837551760
0.2001200828
0.2149558831
0.2277957395
0.2382381197
0.2459467964
0.2506508474
0.2521446553
0.2502879078
0.2450056240
0.2362896474
0.2245859885
0.2105801346
0.1949053130
0.1781412205
0.1608140234
0.1433963576
0.1263073283
0.1099125104
0.0945239482
0.0804001555
0.0677461157
0.0567101457
0.0471467153
0.0390418981
0.0323361996
0.0266804602
0.0214358551
0.0156738941
0.0081764222
-0.0025643811
-0.0183643544
-0.0405938171
-0.0670557531
-0.0935116546
-0.1141881619
-0.1217770849
-0.1074350738
-0.0610380532
0.0241853651
0.1511732369
0.3153172097
0.5032587997
0.6928893918
0.8533502395
0.9462574579
0.9496712964
0.8645848475
0.7093100020
0.5127689846
0.3050988880
0.1117776684
-0.0482703590
-0.1673571561
-0.2438356595
-0.2796153663
-0.2801623348
-0.2544991842
-0.2149023895
-0.1715466081
-0.1303758869
-0.0954256807
-0.0688738866
-0.0510407996
-0.0403891120
-0.0335490719
-0.0280669187
-0.0235803713
-0.0195239624
-0.0154480665
-0.0110188988
-0.0060185162
-0.0003448167
0.0059884606
0.0129073423
0.0205071782
0.0288587550
0.0380114860
0.0479995309
0.0588417964
0.0705419356
0.0830883484
0.0964541810
0.1105973268
0.1254604700
0.1409728108
0.1570506008
0.1735949095
0.1905164043
0.2078095915
0.2252462400
0.2425731983
0.2595532694
0.2759652110
0.2916037351
0.3062795086
0.3198191528
0.3320652434
0.3428763110
0.3521268406
0.3597072717
0.3655239984
0.3694993695
0.3715716883
0.3716952126
0.3698401547
0.3659926817
0.3601158079
0.3521973311
0.3424574128
0.3311207324
0.3184011050
0.3045041249
0.2896273915
0.2739605096
0.2576850895
0.2409747464
0.2239951010
0.2069037793
0.1898504126
0.1729766374
0.1564160955
0.1402944340
0.1247293054
0.1098303674
0.0956992829
0.0824297201
0.0701073528
0.0588093566
0.0485357063
0.0392319603
0.0308439333
0.0233182531
0.0166023600
0.0106445250
0.0053950255
0.0008068996
-0.0031655380
-0.0065669137
-0.0094410328
-0.0118308881
-0.0137786595
-0.0153257142
-0.0165126065
-0.0173790780
-0.0179640576
-0.0183056614
-0.0184411926
-0.0184071417
-0.0182391867
-0.0179721923
-0.0176402110
-0.0172439241
-0.0167717710
-0.0162382601
-0.0156562283
-0.0150368401
-0.0143895886
-0.0137222944
-0.0130411080
-0.0123506679
-0.0116542290
-0.0109534043
-0.0102481349
-0.0095366900
-0.0088156666
-0.0080799899
-0.0073229129
-0.0065360167
-0.0057092105
-0.0048307314
-0.0038871444
-0.0028633428
-0.0017425475
-0.0005063077
0.0008654994
0.0023655721
0.0039403023
0.0057530323
0.0079780302
0.0107740340
0.0142842523
0.0186363637
0.0239425173
0.0302993273
0.0377871755
0.0464694898
0.0563935774
0.0675906610
0.0800763958
0.0938509073
0.1088987911
0.1251891133
0.1426717752
0.1609304033
0.1793834962
0.1974901980
0.2147504244
0.2307048629
0.2449349724
0.2570629833
0.2667518978
0.2737054894
0.2776683035
0.2784256568
0.2757992022
0.2697732647
0.2607918003
0.2493535960
0.2359386959
0.2210096399
0.2050130196
0.1883770607
0.1715112400
0.1548062858
0.1386341777
0.1233481467
0.1092826751
0.0966898813
0.0855737009
0.0759581577
0.0677616375
0.0607829496
0.0547013266
0.0490764248
0.0433483241
0.0368375277
0.0287449624
0.0181519785
0.0040203497
-0.0148077266
-0.0395933589
-0.0683702583
-0.0926791076
-0.1041302112
-0.0952903400
-0.0596848265
0.0082056689
0.1129460097
0.2592690010
0.4452358017
0.6415894918
0.8198395091
0.9560373007
1.0307763242
1.0291920465
0.9412368587
0.7807895530
0.5829706249
0.3763315773
0.1830958292
0.0191587164
-0.1059125092
-0.1873214920
-0.2232237391
-0.2249712761
-0.2037377728
-0.1689887638
-0.1284816486
-0.0882656903
-0.0526806263
-0.0243541270
-0.0042050369
0.0085559342
0.0164262120
0.0225993285
0.0274576280
0.0314796621
0.0351267653
0.0387815929
0.0427481210
0.0472516466
0.0524387874
0.0583774820
0.0650569897
0.0723894451
0.0803911418
0.0891694560
0.0987717080
0.1092301140
0.1205617862
0.1327687333
0.1458378598
0.1597409664
0.1744347495
0.1898594306
0.2059357662
0.2225684745
0.2396469442
0.2570454138
0.2746230180
0.2922806371
0.3098886773
0.3272060124
0.3440065808
0.3600805648
0.3752343911
0.3892907300
0.4020884961
0.4134828479
0.4233451879
0.4315631627
0.4380406627
0.4426978227
0.4454710212
0.4463128807
0.4451922680
0.4420942936
0.4369101751
0.4296096678
0.4204169502
0.4095541379
0.3972356029
0.3836670545
0.3690455390
0.3535594396
0.3373884768
0.3207037081
0.3036675279
0.2864336677
0.2691471963
0.2519445193
0.2349533795
0.2182928565
0.2020733674
0.1863966659
0.1713558431
0.1570353270
0.1435108826
0.1308496121
0.1191099547
0.1083416867
0.0985938374
0.0898758810
0.0821274357
0.0752867634
0.0692909938
0.0640786436
0.0595903612
0.0557690208
0.0525597693
0.0499100266
0.0477694857
0.0460901122
0.0448261448
0.0439340951
0.0433727474
0.0431031592
0.0430886606
0.0432948548
0.0436896180
0.0442430990
0.0449277197
0.0457181749
0.0465914323
0.0475267324
0.0485055887
0.0495117876
0.0505313884
0.0515527232
0.0525668841
0.0535694542
0.0545589214
0.0555360465
0.0565038629
0.0574676774
0.0584410717
0.0594402727
0.0604437779
0.0614327093
0.0623941677
0.0633212325
0.0642129622
0.0650743936
0.0659165425
0.0667564035
0.0676169499
0.0685271337
0.0695218856
0.0706421153
0.0719347109
0.0734525396
0.0752544472
0.0774052581
0.0799757757
0.0830418988
0.0866102448
0.0908391084
0.0959540760
0.1021376190
0.1095290435
0.1182244897
0.1282769321
0.1396961795
0.1524488747
0.1664584949
0.1816053514
0.1977265899
0.2146161900
0.2320249657
0.2497493724
0.2674217780
0.2843812082
0.3000439894
0.3139106792
0.3255660662
0.3346791699
0.3410032408
0.3443757604
0.3447184414
0.3420368584
0.3364186746
0.3280350115
0.3171412206
0.3040469145
0.2890895052
0.2728440204
0.2558549380
0.2386054203
0.2215173150
0.2049511545
0.1892061562
0.1745202224
0.1610699405
0.1489705825
0.1382761057
0.1289791521
0.1210110488
0.1142418078
0.1085510709
0.1036020566
0.0985781171
0.0925845321
0.0846625059
0.0737891667
0.0588780417
0.0387801117
0.0131439654
-0.0145878274
-0.0394099117
-0.0555494042
-0.0564658961
-0.0348514521
0.0170842256
0.1041399928
0.2295183373
0.3903044305
0.5762645302
0.7698459794
0.9461772073
1.0729513524
1.1253677497
1.0998805590
1.0012624429
0.8417438034
0.6410127821
0.4262152603
0.2315395199
0.0753293719
-0.0407580234
-0.1154304124
-0.1506674319
-0.1517188945
-0.1271033760
-0.0882852252
-0.0448063820
-0.0030587703
0.0325517433
0.0597091239
0.0781871684
0.0898495055
0.0978967856
0.1035899479
0.1078857736
0.1115797228
0.1152652239
0.1193336733
0.1239744358
0.1291748445
0.1348474555
0.1411297353
0.1480805122
0.1557450652
0.1641596355
0.1733514262
0.1833389044
0.1941340777
0.2057412170
0.2181554480
0.2313627108
0.2454249739
0.2603675482
0.2760316699
0.2922582704
0.3088898133
0.3257702953
0.3427452453
0.3596617250
0.3763683287
0.3927151831
0.4085539478
0.4237378147
0.4381215086
0.4515612866
0.4639149387
0.4750417871
0.4848026871
0.4930600262
0.4996777247
0.5045212353
0.5074573189
0.5083412585
0.5068198835
0.5029439084
0.4969364214
0.4890127211
0.4793803168
0.4682389285
0.4557804865
0.4421891318
0.4276412159
0.4123053010
0.3963421597
0.3799047753
0.3631383415
0.3461802628
0.3291601541
0.3121998408
0.2954133590
0.2789069555
0.2627790872
0.2471204221
0.2320138384
0.2175344251
0.2037494815
0.1907187416
0.1784966655
0.1671315062
0.1566637724
0.1471262231
0.1385324194
0.1308313269
0.1239590268
0.1178545276
0.1124594105
0.1077178287
0.1035765084
0.0999847477
0.0968944174
0.0942599607
0.0920383931
0.0901893027
0.0886748498
0.0874597674
0.0865113607
0.0857995074
0.0852966576
0.0849778339
0.0848206313
0.0848052171
0.0849141168
0.0851296372
0.0854347042
0.0858147759
0.0862578829
0.0867546283
0.0872981873
0.0878933868
0.0885401538
0.0892203112
0.0899183117
0.0906213831
0.0913195290
0.0920055283
0.0926749352
0.0933260796
0.0939600667
0.0945807773
0.0951948674
0.0958117686
0.0964436880
0.0971056082
0.0978152869
0.0985932577
0.0994628294
0.1004502349
0.1015867437
0.1029076830
0.1044047927
0.1061870466
0.1084252295
0.1112741159
0.1148724705
0.1193430478
0.1247925922
0.1313118381
0.1389755100
0.1478423220
0.1579549784
0.1693401734
0.1820085911
0.1959549055
0.2112153078
0.2276956410
0.2448650991
0.2622029144
0.2792236507
0.2954772032
0.3105487986
0.3240589951
0.3356635980
0.3450522261
0.3519485189
0.3561114038
0.3573351399
0.3554493178
0.3503110872
0.3418304215
0.3305022294
0.3169263290
0.3016570826
0.2852033970
0.2680287233
0.2505510573
0.2331429390
0.2161314528
0.1997982278
0.1843794371
0.1700657985
0.1570025743
0.1452895710
0.1349811396
0.1260861756
0.1185244859
0.1120463559
0.1062535873
0.1005646891
0.0942144511
0.0862527676
0.0755444785
0.0607694634
0.0404559232
0.0147826081
-0.0129979818
-0.0383646811
-0.0556859409
-0.0582198291
-0.0381140301
0.0121906465
0.0978347225
0.2228556914
0.3840342630
0.5705810637
0.7641366362
0.9387714401
1.0625504736
1.1142901820
1.0864298379
0.9814028388
0.8116333938
0.5995364855
0.3775169038
0.1863226040
0.0380944883
-0.0686773714
-0.1339355498
-0.1605985321
-0.1545607144
-0.1246924036
-0.0828292711
-0.0400639149
-0.0012518305
0.0306934749
0.0543939940
0.0700072194
0.0792261433
0.0851743437
0.0897010588
0.0933408243
0.0966638052
0.1001070992
0.1039747367
0.1084376804
0.1135338258
0.1191953835
0.1254946310
0.1325087003
0.1402880677
0.1488711079
0.1582842005
0.1685416610
0.1796456684
0.1915862658
0.2043413594
0.2178767191
0.2321459782
0.2471124024
0.2627818285
0.2789879320
0.2955444885
0.3122686016
0.3289807029
0.3455045523
0.3616672376
0.3772991745
0.3922341070
0.4063091072
0.4193645750
0.4312442387
0.4417951543
0.4508677165
0.4583160596
0.4639981870
0.4677754670
0.4695059262
0.4689348442
0.4661022516
0.4611669322
0.4542868788
0.4456192938
0.4353205891
0.4235463856
0.4104515141
0.3961900143
0.3809151357
0.3647793368
0.3479342857
0.3305308600
0.3127191464
0.2946484412
0.2764672500
0.2583232877
0.2403634789
0.2227339572
0.2055800658
0.1890463570
0.1732765766
0.1584136570
0.1445970107
0.1318538185
0.1201301431
0.1093832631
0.0995705082
0.0906492600
0.0825769511
0.0753110660
0.0688091404
0.0630287614
0.0579275677
0.0534632495
0.0495935483
0.0462762571
0.0434692205
0.0411303344
0.0392175461
0.0376888545
0.0365023100
0.0356160144
0.0349881208
0.0345768339
0.0343403941
0.0342360084
0.0342271734
0.0343247508
0.0345188254
0.0347947947
0.0351391945
0.0355396993
0.0359851221
0.0364654143
0.0369716659
0.0374961056
0.0380321002
0.0385741554
0.0391179153
0.0396601624
0.0401988180
0.0407329417
0.0412627316
0.0417895244
0.0423157954
0.0428451583
0.0433823653
0.0439333072
0.0445050134
0.0450866073
0.0456861343
0.0463718979
0.0472172340
0.0482993501
0.0496992969
0.0515021233
0.0537968861
0.0566766502
0.0602384881
0.0645834808
0.0698167167
0.0760472927
0.0833883131
0.0919568907
0.1018741459
0.1132777780
0.1264931256
0.1412800177
0.1571979597
0.1738210020
0.1907377405
0.2075513164
0.2238794159
0.2393542708
0.2536226520
0.2663450102
0.2771945922
0.2858589793
0.2920402979
0.2954552196
0.2958349614
0.2929252855
0.2864853142
0.2766816630
0.2641788269
0.2496148690
0.2335737082
0.2165851194
0.1991247339
0.1816140388
0.1644203775
0.1478569494
0.1321828100
0.1176028709
0.1042678999
0.0922745207
0.0816652132
0.0724283133
0.0644980133
0.0578521236
0.0545561524
0.0525372522
0.0485907412
0.0404945155
0.0270091531
0.0078777147
-0.0161742811
-0.0434388581
-0.0712255819
-0.0958615605
-0.1126914437
-0.1166684288
-0.0983569514
-0.0461382060
0.0458664765
0.1775893939
0.3430164727
0.5301872679
0.7212018892
0.8905344994
1.0050548271
1.0423934541
0.9949165986
0.8697261148
0.6886594925
0.4828702071
0.2777618244
0.0940020462
-0.0544690447
-0.1604622078
-0.2235390454
-0.2479077239
-0.2400757242
-0.2116738728
-0.1725704981
-0.1305899123
-0.0915124112
-0.0590742743
-0.0349677645
-0.0185139264
-0.0074923736
-0.0003550288
0.0042179238
0.0073331222
0.0098840275
0.0125509228
0.0158009142
0.0198879300
0.0248527213
0.0305228618
0.0365600715
0.0431505201
0.0504641612
0.0585512718
0.0674490232
0.0771813888
0.0877591233
0.0991797625
0.1114276235
0.1244738045
0.1382761852
0.1527794262
0.1679149694
0.1836010380
0.1998223640
0.2165109815
0.2334375698
0.2503824568
0.2671368263
0.2835027189
0.2992930313
0.3143315164
0.3284527836
0.3415022987
0.3533363836
0.3638221982
0.3728376995
0.3802716894
0.3860238257
0.3900046228
0.3921354514
0.3923485384
0.3905869672
0.3867654779
0.3807259029
0.3726529000
0.3627693662
0.3512900288
0.3384214455
0.3243620043
0.3093019236
0.2934232522
0.2768998691
0.2598974837
0.2425736361
0.2250776962
0.2075508647
0.1901261724
0.1729284806
0.1560744809
0.1396726606
0.1238232128
0.1086181328
0.0941411300
0.0804671815
0.0676629245
0.0557868266
0.0448891857
0.0350147574
0.0261545131
0.0182424605
0.0112133256
0.0050041836
-0.0004455414
-0.0051940762
-0.0092972984
-0.0128087367
-0.0157795705
-0.0182586304
-0.0202923976
-0.0219250046
-0.0231982343
-0.0241515211
-0.0248219499
-0.0252442567
-0.0254507635
-0.0254711805
-0.0253328018
-0.0250605725
-0.0246770886
-0.0242025971
-0.0236549959
-0.0230498337
-0.0224003102
-0.0217172761
-0.0210092329
-0.0202823330
-0.0195403800
-0.0187848280
-0.0180147822
-0.0172269989
-0.0163905877
-0.0154965955
-0.0145767192
-0.0136561520
-0.0127535191
-0.0118808781
-0.0110437186
-0.0102409626
-0.0094649642
-0.0087017416
-0.0079318083
-0.0071294136
-0.0062621589
-0.0052904262
-0.0041677146
-0.0028409534
-0.0012505041
0.0006698397
0.0029928520
0.0057978747
0.0091708177
0.0132007714
0.0179074612
0.0234767064
0.0301250961
0.0380139199
0.0472491678
0.0578815299
0.0699063968
0.0832638594
0.0978387088
0.1134604366
0.1299032346
0.1468859949
0.1640728027
0.1810749911
0.1974673896
0.2128215448
0.2266003649
0.2383312479
0.2476268577
0.2541851229
0.2577892379
0.2583076619
0.2556941198
0.2499824274
0.2413168979
0.2300682873
0.2166469774
0.2014731181
0.1849766273
0.1675971910
0.1497842635
0.1319970670
0.1146980412
0.0981873928
0.0827424777
0.0686092859
0.0559489199
0.0448369887
0.0352606721
0.0271209801
0.0202340049
0.0143305411
0.0090561876
0.0039716480
-0.0009794352
-0.0072948300
-0.0176935249
-0.0335609577
-0.0549178932
-0.0804204231
-0.1073599663
-0.1316632685
-0.1489482198
-0.1516458783
-0.1278774314
-0.0698193701
0.0259878904
0.1586400111
0.3228687284
0.5090418552
0.7027496719
0.8755029005
0.9947075834
1.0401535614
1.0046237774
0.8938928754
0.7259175461
0.5246819877
0.3168062961
0.1235129183
-0.0403000941
-0.1660590851
-0.2506376957
-0.2918432353
-0.2990833186
-0.2826858795
-0.2514970967
-0.2128813941
-0.1727214406
-0.1354181500
-0.1038906814
-0.0795764389
-0.0624310715
-0.0507339266
-0.0414876985
-0.0339409110
-0.0276946885
-0.0223819983
-0.0176699873
-0.0132585130
-0.0088789193
-0.0042939209
0.0007024149
0.0062845437
0.0125954372
0.0197465832
0.0278179855
0.0368581638
0.0468841541
0.0578815079
0.0698042933
0.0825750940
0.0960850099
0.1101936567
0.1249461307
0.1404670374
0.1566308393
0.1733095406
0.1903735333
0.2076915974
0.2251309008
0.2425569993
0.2598340470
0.2768263899
0.2933976787
0.3094099595
0.3247236662
0.3391976207
0.3526890327
0.3650534999
0.3761450077
0.3858159297
0.3939170273
0.4002974496
0.4048080865
0.4073825386
0.4080401027
0.4068135868
0.4037473254
0.3988971795
0.3923305368
0.3841263112
0.3743749433
0.3631784003
0.3506501756
0.3369152895
0.3221102885
0.3063831027
0.2898917843
0.2728051154
0.2553033964
0.2375785278
0.2198340682
0.2022850810
0.1850669251
0.1682442577
0.1519171016
0.1361740916
0.1210924742
0.1067381078
0.0931654627
0.0804176211
0.0685262771
0.0575117367
0.0473829177
0.0381373499
0.0297611749
0.0222291462
0.0155046292
0.0095396012
0.0042746514
-0.0003610193
-0.0044267230
-0.0079324889
-0.0109249353
-0.0134507729
-0.0155541287
-0.0172765459
-0.0186569841
-0.0197318191
-0.0205348429
-0.0210972640
-0.0214477069
-0.0216122125
-0.0216142380
-0.0214746569
-0.0212117587
-0.0208412496
-0.0203762518
-0.0198273037
-0.0192023602
-0.0185067924
-0.0177433875
-0.0169073964
-0.0159756217
-0.0149615114
-0.0138817583
-0.0127504251
-0.0115816640
-0.0103888423
-0.0091825152
-0.0079704492
-0.0067577432
-0.0055466736
-0.0043366620
-0.0031242749
-0.0019032235
-0.0006643643
0.0006043016
0.0019176279
0.0032933236
0.0047519527
0.0063169341
0.0080145419
0.0098739053
0.0119270086
0.0142086909
0.0167566468
0.0195909654
0.0226735257
0.0261997366
0.0303765755
0.0353793878
0.0413546543
0.0484193441
0.0566586620
0.0661259871
0.0768428729
0.0887990471
0.1019524116
0.1162290427
0.1315231911
0.1476972816
0.1645819134
0.1819758599
0.1996764884
0.2172487321
0.2341336900
0.2498343944
0.2639161202
0.2760063851
0.2857949496
0.2930338171
0.2975372338
0.2991816885
0.2979059131
0.2937108820
0.2866555975
0.2768506347
0.2647223619
0.2507538070
0.2353993943
0.2190847698
0.2022069602
0.1851344373
0.1682071181
0.1517363650
0.1360049851
0.1212672312
0.1077488009
0.0957574483
0.0858172824
0.0775467582
0.0704591920
0.0640826035
0.0579597169
0.0516479596
0.0447194635
0.0367610640
0.0273743006
0.0161754164
0.0027953586
-0.0131202750
-0.0319123304
-0.0539080558
-0.0793942829
-0.1047142807
-0.1193357963
-0.1140446207
-0.0819756607
-0.0186129389
0.0782104064
0.2083121208
0.3691608343
0.5560936117
0.7559250503
0.9353498977
1.0663883222
1.1306475635
1.1193219327
1.0331928130
0.8826442431
0.6893871259
0.4812239469
0.2809948306
0.1055518292
-0.0342410775
-0.1335079220
-0.1930310825
-0.2139363813
-0.2052506262
-0.1773501415
-0.1389252080
-0.0969804696
-0.0568352794
-0.0221237018
0.0052054873
0.0248888010
0.0383982246
0.0482929269
0.0556166573
0.0610643963
0.0652544889
0.0687286444
0.0719519369
0.0753128046
0.0791230502
0.0836178412
0.0889557090
0.0952185499
0.1024116245
0.1104635577
0.1192262939
0.1285053985
0.1384718183
0.1492278048
0.1607849867
0.1731413414
0.1862811951
0.2001752229
0.2147804487
0.2300402451
0.2458843336
0.2622287844
0.2789760166
0.2960147980
0.3132202452
0.3304538237
0.3475633476
0.3643879341
0.3808533423
0.3967798010
0.4119488038
0.4261614758
0.4392385734
0.4510204846
0.4613672284
0.4701585028
0.4772955512
0.4827017738
0.4863203752
0.4881141274
0.4880645665
0.4861722358
0.4824572962
0.4769595400
0.4697383909
0.4608729038
0.4504149272
0.4384049599
0.4250525187
0.4105659104
0.3951437926
0.3789751736
0.3622394129
0.3451062206
0.3277356576
0.3102781358
0.2928744180
0.2756556177
0.2587431993
0.2422489780
0.2262750782
0.2109118010
0.1962366085
0.1823170594
0.1692110631
0.1569668801
0.1456231214
0.1352234854
0.1258054646
0.1173177185
0.1097043020
0.1029107088
0.0968838724
0.0915721650
0.0869253982
0.0828948231
0.0794331296
0.0764944472
0.0740343443
0.0720098289
0.0703793478
0.0691027875
0.0681414734
0.0674581701
0.0670170818
0.0667838780
0.0667274996
0.0668213186
0.0670404223
0.0673613592
0.0677627333
0.0682252685
0.0687311634
0.0692640556
0.0698090222
0.0703571850
0.0709415238
0.0715589006
0.0721957584
0.0728406599
0.0734842875
0.0741194435
0.0747410499
0.0753461485
0.0759339009
0.0765055885
0.0770646122
0.0776164931
0.0781688717
0.0787315085
0.0793162692
0.0799357436
0.0806021005
0.0813293596
0.0821336599
0.0830332606
0.0840485403
0.0852019977
0.0865182510
0.0880240384
0.0897482176
0.0917046600
0.0938672605
0.0964028269
0.0994894778
0.1032836736
0.1079202172
0.1135122537
0.1201512702
0.1279070961
0.1368279032
0.1469402052
0.1582488582
0.1707370605
0.1843663525
0.1990766239
0.2147871040
0.2314043114
0.2489569897
0.2669921341
0.2849065913
0.3021571428
0.3182610428
0.3327960761
0.3454005581
0.3557733351
0.3636737842
0.3689218131
0.3713978602
0.3710428948
0.3678584167
0.3619064567
0.3533095761
0.3422508671
0.3289319805
0.3137635144
0.2973071548
0.2800717547
0.2625122691
0.2450297549
0.2279713687
0.2116298363
0.1962427758
0.1819937399
0.1690123836
0.1573744636
0.1471018385
0.1381624690
0.1304704176
0.1238858487
0.1182150287
0.1136210665
0.1093298856
0.1037220481
0.0955512133
0.0839468492
0.0684142327
0.0488344491
0.0254643927
-0.0011038516
-0.0293719038
-0.0513893643
-0.0587351979
-0.0445167082
-0.0033695380
0.0685423307
0.1735266241
0.3123628490
0.4840154555
0.6766315072
0.8669069373
1.0316538609
1.1485126820
1.1960634178
1.1618265900
1.0482082349
0.8723957802
0.6668793905
0.4603336581
0.2741116030
0.1229120483
0.0138799921
-0.0524154233
-0.0805662298
-0.0770136992
-0.0499413771
-0.0092750827
0.0339919495
0.0733733299
0.1059005597
0.1301664053
0.1463325507
0.1561306206
0.1625047555
0.1669354356
0.1702720922
0.1732231850
0.1763017236
0.1798252676
0.1839159266
0.1885203189
0.1937049988
0.1995570625
0.2061286698
0.2134643014
0.2216007587
0.2305671636
0.2403849593
0.2510679091
0.2626238048
0.2751134162
0.2885053608
0.3027097320
0.3176299113
0.3331625683
0.3491976601
0.3656173836
0.3822938552
0.3990918046
0.4158692493
0.4324774456
0.4487607211
0.4645566326
0.4796960246
0.4940030299
0.5072950691
0.5193828507
0.5300703713
0.5391549156
0.5464283462
0.5517525985
0.5551006925
0.5564669711
0.5558611980
0.5533085585
0.5488496587
0.5425405260
0.5344526092
0.5246727778
0.5133033229
0.5004619566
0.4862827800
0.4709188180
0.4545393089
0.4373289122
0.4194877086
0.4012311997
0.3827903085
0.3644113792
0.3463453254
0.3286853307
0.3115128315
0.2949251799
0.2790079721
0.2638350494
0.2494684971
0.2359586455
0.2233440693
0.2116515876
0.2008962643
0.1910814077
0.1821985707
0.1742275508
0.1671363900
0.1608813748
0.1554070365
0.1506455006
0.1465144843
0.1429192888
0.1398148020
0.1371863820
0.1349835704
0.1331587401
0.1316671282
0.1304668364
0.1295188305
0.1287869408
0.1282378622
0.1278411537
0.1275692388
0.1273974053
0.1273038056
0.1272694563
0.1272782384
0.1273168974
0.1273750431
0.1274451498
0.1275225559
0.1276068296
0.1277035948
0.1277985892
0.1278769898
0.1279296823
0.1279512653
0.1279392452
0.1278940359
0.1278189588
0.1277202429
0.1276070251
0.1274913495
0.1273881680
0.1273153400
0.1272936326
0.1273467204
0.1275011856
0.1277865181
0.1282351152
0.1288822820
0.1297363347
0.1308309159
0.1323409937
0.1344317497
0.1372519478
0.1409339339
0.1455936360
0.1513305643
0.1582272785
0.1663471537
0.1757362516
0.1864242152
0.1984242849
0.2117334734
0.2263342244
0.2423121049
0.2592962095
0.2767044023
0.2939972231
0.3106778875
0.3262922865
0.3404289871
0.3527192320
0.3628369395
0.3704987035
0.3754637938
0.3775341559
0.3765544108
0.3724118554
0.3650392904
0.3546446355
0.3417815326
0.3269938942
0.3107889782
0.2936379800
0.2759755791
0.2581996790
0.2406714076
0.2237151171
0.2076183836
0.1926320074
0.1789700131
0.1667659795
0.1558329932
0.1463087141
0.1382317100
0.1314242269
0.1254921886
0.1198251970
0.1135965320
0.1057631515
0.0950656913
0.0800284031
0.0593530086
0.0338136291
0.0060247654
-0.0198616500
-0.0381562537
-0.0416317444
-0.0216938122
0.0276647909
0.1142401615
0.2411895931
0.4041966989
0.5914714034
0.7837500719
0.9548767458
1.0764644596
1.1217118413
1.0791823691
0.9546633366
0.7709003938
0.5624078188
0.3615022662
0.1908395811
0.0630693604
-0.0175136033
-0.0545696542
-0.0561745647
-0.0316692509
0.0083419077
0.0520146107
0.0900373745
0.1200548789
0.1415619900
0.1553290154
0.1634052708
0.1687956219
0.1729519545
0.1765817071
0.1802511094
0.1843431173
0.1890574129
0.1944104417
0.2003881664
0.2070897600
0.2145663752
0.2228582217
0.2319945664
0.2419937337
0.2528631051
0.2645991196
0.2771967464
0.2906890134
0.3049800132
0.3199393543
0.3354284845
0.3513006911
0.3674021778
0.3835802703
0.3996788749
0.4155337756
0.4309725970
0.4458148932
0.4598722045
0.4729479244
0.4848372854
0.4953273596
0.5041970586
0.5112171333
0.5161875947
0.5190474108
0.5197751721
0.5183715245
0.5148595193
0.5092846141
0.5017146721
0.4922399624
0.4809731600
0.4680493456
0.4536260060
0.4378830337
0.4210227270
0.4032690858
0.3848615618
0.3660580503
0.3471388062
0.3283968077
0.3099687415
0.2919756773
0.2745534651
0.2578207314
0.2418788790
0.2268120866
0.2126873095
0.1995542791
0.1874455031
0.1763762655
0.1663446263
0.1573314221
0.1493002655
0.1421975454
0.1359524272
0.1304768522
0.1256655381
0.1214415889
0.1177870219
0.1146351426
0.1119223456
0.1095932392
0.1075990589
0.1058949562
0.1044399542
0.1031968480
0.1021320477
0.1012157944
0.1004222014
0.0997292539
0.0991188088
0.0985765951
0.0980922135
0.0976591368
0.0972747095
0.0969446079
0.0966743102
0.0964488986
0.0962557777
0.0960857477
0.0959330036
0.0957951360
0.0956731307
0.0955713689
0.0954976267
0.0954628320
0.0954780913
0.0955556354
0.0957110429
0.0959632873
0.0963347376
0.0968511581
0.0975417082
0.0984389428
0.0995729045
0.1009509269
0.1027343365
0.1051055854
0.1082291951
0.1122517566
0.1173019306
0.1234904474
0.1309101066
0.1396357775
0.1497243991
0.1612149797
0.1741285974
0.1884865154
0.2043131038
0.2210952774
0.2382410234
0.2551947546
0.2714367465
0.2864811373
0.2998758731
0.3112027796
0.3200777899
0.3261507227
0.3291052047
0.3286586699
0.3245402484
0.3165882116
0.3054217183
0.2917435500
0.2762008676
0.2593852115
0.2418325013
0.2240230363
0.2063814951
0.1892769358
0.1730227958
0.1578768921
0.1440414211
0.1316629584
0.1208324593
0.1115851422
0.1050406066
0.1016422892
0.0983435091
0.0927652348
0.0833042028
0.0691329174
0.0501996507
0.0272284425
0.0017191006
-0.0240527996
-0.0470359146
-0.0633546609
-0.0636102009
-0.0338642903
0.0346400785
0.1447928681
0.2936169969
0.4722683383
0.6661361229
0.8455991645
0.9696164899
1.0118610849
0.9627452227
0.8294184943
0.6389266942
0.4306254388
0.2358258550
0.0757010052
-0.0386325292
-0.1016957327
-0.1219472614
-0.1121469529
-0.0834150978
-0.0452324403
-0.0054401771
0.0297600414
0.0558061121
0.0718443640
0.0815392731
0.0872796489
0.0909371492
0.0938755282
0.0969506364
0.1005104211
0.1044742916
0.1090121005
0.1142494931
0.1202593371
0.1271035163
0.1348328675
0.1434855724
0.1530870341
0.1636515833
0.1751825666
0.1876776496
0.2012583432
0.2158438392
0.2312481725
0.2472849701
0.2637674519
0.2805084301
0.2973203092
0.3140150865
0.3304043515
0.3462992863
0.3615106655
0.3758488562
0.3891238178
0.4011451025
0.4117218546
0.4206628111
0.4277763015
0.4328702476
0.4357521639
0.4362173414
0.4341939959
0.4298377636
0.4233180105
0.4148070476
0.4044801407
0.3925156093
0.3790947896
0.3644019647
0.3486243629
0.3319521583
0.3145784701
0.2966993633
0.2785138481
0.2602238802
0.2420343608
0.2241531368
0.2067910001
0.1901616884
0.1744813375
0.1598608842
0.1462824807
0.1337372151
0.1222115559
0.1116873516
0.1021418196
0.0935471103
0.0858701603
0.0790732460
0.0731140234
0.0679455291
0.0635161795
0.0597697711
0.0566454805
0.0540778647
0.0519968603
0.0503277844
0.0489913341
0.0479039464
0.0470334685
0.0463735595
0.0458976819
0.0455813043
0.0454019014
0.0453389544
0.0453739503
0.0454903828
0.0456737515
0.0459115622
0.0461933271
0.0465105526
0.0468561238
0.0472240075
0.0476101024
0.0480123136
0.0484305497
0.0488666675
0.0493274726
0.0498359246
0.0503739490
0.0509251111
0.0514854506
0.0520634807
0.0526801890
0.0533690368
0.0541759595
0.0551593663
0.0563901404
0.0579516393
0.0599396939
0.0624626096
0.0656411654
0.0695545491
0.0743204311
0.0802253187
0.0874880270
0.0962533585
0.1065928704
0.1185030910
0.1319053369
0.1466457134
0.1624951140
0.1791492210
0.1962285048
0.2132925525
0.2299133451
0.2453426396
0.2588683320
0.2699092474
0.2780151400
0.2828666936
0.2842755210
0.2821841643
0.2766660947
0.2679257130
0.2562836015
0.2421224569
0.2261448936
0.2090482103
0.1914527378
0.1739018269
0.1568606944
0.1407154579
0.1257750399
0.1122713943
0.1003595077
0.0900887336
0.0812986962
0.0740333489
0.0680930858
0.0629406275
0.0577010209
0.0511616391
0.0417721818
0.0277023577
0.0077489269
-0.0172533908
-0.0440652198
-0.0670338485
-0.0780932286
-0.0668189359
-0.0250976078
0.0571735665
0.1847930344
0.3522458146
0.5437035032
0.7330250694
0.8839947878
0.9620938738
0.9513207508
0.8523440930
0.6822261114
0.4744225536
0.2703818761
0.0914895742
-0.0483125875
-0.1419602818
-0.1893870377
-0.1974910083
-0.1762696272
-0.1380929884
-0.0945475158
-0.0539235191
-0.0212151948
0.0018793746
0.0169354838
0.0268077100
0.0331692054
0.0374300676
0.0407245308
0.0439109654
0.0475717325
0.0520129970
0.0572650144
0.0630903696
0.0695001844
0.0766856303
0.0847105495
0.0936232088
0.1034562920
0.1142268998
0.1259365500
0.1385711774
0.1521011336
0.1664811873
0.1816505242
0.1975718213
0.2142640322
0.2314989897
0.2490312361
0.2666250525
0.2840544591
0.3011032150
0.3175648181
0.3332425054
0.3479492509
0.3615069796
0.3737453398
0.3845034018
0.3936299746
0.4009836060
0.4064325830
0.4098549314
0.4111384159
0.4101618667
0.4066088928
0.4006173326
0.3924672930
0.3824268583
0.3707520903
0.3576870280
0.3434636879
0.3283020639
0.3124101272
0.2959838265
0.2792070877
0.2622518144
0.2452778871
0.2284331643
0.2118534813
0.1956626527
0.1799739148
0.1648926275
0.1505128673
0.1369166884
0.1241741220
0.1123431407
0.1014695506
0.0915871001
0.0827175451
0.0748474030
0.0679073897
0.0618248752
0.0565305736
0.0519585437
0.0480461883
0.0447342545
0.0419668341
0.0396913628
0.0378586210
0.0364227332
0.0353411683
0.0345747396
0.0340876048
0.0338472656
0.0338245680
0.0339925023
0.0343235292
0.0347926734
0.0353783037
0.0360621335
0.0368292204
0.0376699822
0.0386049826
0.0396203762
0.0406911645
0.0417962915
0.0429186441
0.0440450518
0.0451662867
0.0462770636
0.0473760401
0.0484658162
0.0495529348
0.0506478813
0.0517650840
0.0529229135
0.0541436835
0.0554536500
0.0568830118
0.0584659105
0.0602407052
0.0622506986
0.0645433634
0.0671236110
0.0700699446
0.0736406224
0.0780611445
0.0835188487
0.0901628301
0.0981039411
0.1074147910
0.1181297464
0.1302449308
0.1437182252
0.1584692674
0.1743794525
0.1912935918
0.2091600050
0.2273991217
0.2452159734
0.2619115304
0.2768827015
0.2896223338
0.2997192132
0.3068580637
0.3108199208
0.3114832865
0.3088229932
0.3029098118
0.2939104517
0.2820756317
0.2677667080
0.2516939714
0.2345505299
0.2169486441
0.1994197276
0.1824143468
0.1663022210
0.1513722225
0.1378323761
0.1258098599
0.1153510044
0.1064212934
0.0989053633
0.0926580790
0.0874324462
0.0821944752
0.0757975363
0.0670762604
0.0548465388
0.0379051761
0.0150236015
-0.0127112784
-0.0390504105
-0.0566872912
-0.0578024782
-0.0340637486
0.0233739652
0.1221551944
0.2623935132
0.4360405060
0.6267878022
0.8100646616
0.9530379746
1.0185090898
0.9926626058
0.8815302684
0.7079444805
0.5037920501
0.2992521612
0.1176859924
-0.0255820920
-0.1247514654
-0.1814307923
-0.1999543046
-0.1872753692
-0.1529657987
-0.1091843796
-0.0666195643
-0.0294683197
0.0000501617
0.0211873395
0.0346653258
0.0426768850
0.0484417079
0.0531008237
0.0571882923
0.0611951408
0.0654908974
0.0703235913
0.0758197529
0.0819844138
0.0887632992
0.0962542526
0.1045262716
0.1136296804
0.1236000311
0.1344581029
0.1462099029
0.1588466656
0.1723447232
0.1866648694
0.2017528453
0.2175396191
0.2339413865
0.2509334657
0.2684096004
0.2861374366
0.3038935833
0.3214637482
0.3386427375
0.3552344557
0.3710519057
0.3859171890
0.3996615054
0.4121251532
0.4231575291
0.4326171284
0.4403715447
0.4462974699
0.4502806947
0.4522161079
0.4519685719
0.4492237348
0.4441333760
0.4369388744
0.4278734911
0.4171619664
0.4050202416
0.3916554572
0.3772659534
0.3620412703
0.3461621474
0.3298005238
0.3131195384
0.2962735296
0.2794080354
0.2626597937
0.2461567417
0.2300180164
0.2143539545
0.1992660922
0.1848471653
0.1711811094
0.1583430596
0.1463993507
0.1354075171
0.1254162929
0.1164616122
0.1085136199
0.1015003551
0.0953515649
0.0899996338
0.0853797797
0.0814300545
0.0780913428
0.0753072675
0.0730241422
0.0711911031
0.0697601207
0.0686860001
0.0679263802
0.0674417347
0.0671953712
0.0671534319
0.0672848931
0.0675615656
0.0679580942
0.0684519584
0.0690234716
0.0696557819
0.0703348713
0.0710495564
0.0717914880
0.0725551513
0.0733490852
0.0741905477
0.0750588075
0.0759352485
0.0768053931
0.0776589017
0.0784895730
0.0792953438
0.0800782893
0.0808446225
0.0816046951
0.0823729967
0.0831681550
0.0840129362
0.0849342445
0.0859631224
0.0871347504
0.0884884474
0.0900676705
0.0919200149
0.0940972140
0.0966106883
0.0995224198
0.1030773913
0.1074912448
0.1129429604
0.1195731199
0.1274847330
0.1367443286
0.1473819684
0.1593912467
0.1727293386
0.1873170636
0.2030387896
0.2197424172
0.2372897041
0.2554956894
0.2736402589
0.2910269442
0.3070463951
0.3211763792
0.3329817826
0.3421146092
0.3483139811
0.3514061385
0.3513044397
0.3480093610
0.3416084970
0.3322765602
0.3202656966
0.3058757632
0.2897423525
0.2725144705
0.2547686166
0.2370087461
0.2196662706
0.2031000580
0.1875964322
0.1733691733
0.1605595176
0.1492361574
0.1393952416
0.1309603748
0.1237826180
0.1176827535
0.1127337950
0.1075176476
0.1004807929
0.0904233632
0.0764991422
0.0582155649
0.0354337173
0.0083992103
-0.0191303967
-0.0385621668
-0.0416308570
-0.0208490984
0.0304939075
0.1183355027
0.2485652827
0.4178901336
0.6063303601
0.7916827921
0.9503907248
1.0575439140
1.0868785756
1.0206664795
0.8806712369
0.6964052184
0.4941149807
0.2967812660
0.1241190021
-0.0078266536
-0.0944574225
-0.1397826482
-0.1495598209
-0.1313235301
-0.0943854635
-0.0498340372
-0.0079682896
0.0275421717
0.0552185856
0.0747920808
0.0872005187
0.0945884062
0.0998578812
0.1040490500
0.1077098073
0.1113142715
0.1152146326
0.1196411523
0.1247021644
0.1303840780
0.1366756537
0.1436806244
0.1514599313
0.1600616729
0.1695211049
0.1798606404
0.1910898498
0.2032054609
0.2161913587
0.2300185855
0.2446453410
0.2600189865
0.2761591337
0.2929468806
0.3101823497
0.3276696886
0.3452171799
0.3626372412
0.3797464062
0.3963652277
0.4123183490
0.4274345483
0.4415467387
0.4544919685
0.4661114209
0.4762504140
0.4847584010
0.4914889701
0.4962998445
0.4990524886
0.4994733937
0.4975300137
0.4933983232
0.4872516105
0.4792604777
0.4695928401
0.4584139267
0.4458864181
0.4321733262
0.4174379098
0.4018408627
0.3855401919
0.3686912183
0.3514465762
0.3339562135
0.3163673915
0.2988246854
0.2814699836
0.2644424883
0.2478787151
0.2319124934
0.2166749658
0.2022945888
0.1888971323
0.1765834663
0.1653115258
0.1550263550
0.1456787413
0.1372202068
0.1296030082
0.1227801365
0.1167053173
0.1113329721
0.1066172277
0.1025118355
0.0989712263
0.0959505651
0.0934057518
0.0912934219
0.0895709625
0.0881965050
0.0871289153
0.0863277941
0.0857534765
0.0853670320
0.0851302648
0.0850057134
0.0849631924
0.0850104805
0.0851393584
0.0853383890
0.0855972771
0.0859068701
0.0862591573
0.0866472701
0.0870654822
0.0875092096
0.0879749796
0.0884594620
0.0889592703
0.0894720896
0.0899967471
0.0905332122
0.0910825965
0.0916471537
0.0922302797
0.0928365127
0.0934715330
0.0941421606
0.0948436245
0.0955980442
0.0964572468
0.0974797953
0.0987309892
0.1002828644
0.1022141927
0.1046104827
0.1075639788
0.1111736619
0.1155452494
0.1207911946
0.1270306872
0.1343896984
0.1430027818
0.1530156219
0.1647063789
0.1779808920
0.1925264669
0.2080224603
0.2241405196
0.2405445656
0.2568905661
0.2728265277
0.2879924955
0.3020205531
0.3145348227
0.3251514650
0.3334786792
0.3391167033
0.3416578135
0.3406845889
0.3359540892
0.3279060415
0.3170934823
0.3040400491
0.2892399803
0.2731581153
0.2562298610
0.2388594579
0.2214191304
0.2042514929
0.1876697604
0.1719577491
0.1573698761
0.1441311593
0.1324372177
0.1223380627
0.1136000322
0.1062525184
0.1001077317
0.0947199554
0.0893855458
0.0831429323
0.0747726173
0.0627975006
0.0458017423
0.0234448164
-0.0028506481
-0.0297409294
-0.0519612124
-0.0623255893
-0.0521264670
-0.0147648548
0.0593837453
0.1748038865
0.3286897815
0.5109451059
0.7041829980
0.8842222667
1.0199230817
1.0828801031
1.0598140817
0.9531036645
0.7807853943
0.5758845359
0.3707379984
0.1877401382
0.0421866783
-0.0582535464
-0.1135385885
-0.1291463573
-0.1134920802
-0.0795411759
-0.0378981146
0.0034480848
0.0391238551
0.0663710806
0.0851208790
0.0979943433
0.1067134068
0.1124849443
0.1163590116
0.1192288453
0.1218308634
0.1247446647
0.1283930293
0.1330419179
0.1388004726
0.1456210165
0.1532990537
0.1614816775
0.1702658222
0.1798929301
0.1903911687
0.2017698473
0.2140194170
0.2271114706
0.2409987429
0.2556151101
0.2708755905
0.2866763441
0.3028946726
0.3193890313
0.3360273310
0.3527378877
0.3692650960
0.3853464059
0.4007390293
0.4152199420
0.4285862412
0.4406555875
0.4512655117
0.4602733065
0.4675560264
0.4730104881
0.4765532701
0.4781207130
0.4776689193
0.4751737532
0.4706308413
0.4639839788
0.4551898713
0.4445041974
0.4321856471
0.4184818651
0.4036294516
0.3878539616
0.3713698913
0.3543773780
0.3370579160
0.3195808943
0.3021046566
0.2847765020
0.2677326847
0.2510984137
0.2349878532
0.2195041226
0.2047392961
0.1907744033
0.1776794284
0.1655133112
0.1543239462
0.1441590932
0.1350286215
0.1268542695
0.1195562421
0.1130575098
0.1072838083
0.1021636386
0.0976282671
0.0936117254
0.0900508106
0.0868850936
0.0840607739
0.0815367407
0.0792762201
0.0772452034
0.0754124474
0.0737494740
0.0722304367
0.0708317744
0.0695325837
0.0683147267
0.0671628310
0.0660642891
0.0650092591
0.0639906644
0.0630041936
0.0620483008
0.0611242053
0.0602358916
0.0593901097
0.0585963750
0.0578669679
0.0572226738
0.0566839579
0.0562338577
0.0558594703
0.0555525081
0.0553044077
0.0551124752
0.0549812279
0.0549223946
0.0549549155
0.0551049421
0.0554058370
0.0558981746
0.0566297404
0.0576555313
0.0590377554
0.0608458325
0.0631563934
0.0660157241
0.0695025716
0.0738687102
0.0793264201
0.0860384346
0.0941179404
0.1036285777
0.1145844401
0.1269500746
0.1406404814
0.1555211147
0.1714088138
0.1880738952
0.2052906795
0.2227592657
0.2397479007
0.2555783213
0.2696672897
0.2815266733
0.2907633834
0.2970793404
0.3002714741
0.3002317229
0.2969470345
0.2904993657
0.2810656823
0.2688939663
0.2543121205
0.2379885944
0.2205695694
0.2026296732
0.1846719803
0.1671280113
0.1503577335
0.1346495606
0.1202203527
0.1072154692
0.0957089085
0.0857031599
0.0771291589
0.0698841456
0.0639275431
0.0584084159
0.0523082241
0.0446051635
0.0342741659
0.0202868991
0.0016117666
-0.0228043014
-0.0516545232
-0.0780503280
-0.0944572146
-0.0934046242
-0.0674859409
-0.0093584915
0.0884635050
0.2301510497
0.4036783092
0.5911662042
0.7711539912
0.9185992626
1.0048772992
0.9992996016
0.9013313982
0.7405044713
0.5453521341
0.3420599204
0.1544655839
0.0038830986
-0.0997494165
-0.1591024805
-0.1792794917
-0.1677028577
-0.1341139951
-0.0905733073
-0.0488343434
-0.0132754460
0.0143706170
0.0336836778
0.0455561688
0.0521931226
0.0567620747
0.0604400485
0.0636779810
0.0669070035
0.0704505249
0.0745252111
0.0792445619
0.0846156775
0.0906068319
0.0973167700
0.1048166400
0.1131592642
0.1223804194
0.1324988372
0.1435162039
0.1554171603
0.1681693023
0.1817231801
0.1960122988
0.2109531183
0.2264450529
0.2424293429
0.2588071174
0.2753241906
0.2917366173
0.3078134907
0.3233369421
0.3381021413
0.3519172965
0.3646036540
0.3759947354
0.3859330944
0.3942730135
0.4008818124
0.4056398495
0.4084405212
0.4091902696
0.4078067924
0.4039949715
0.3977740954
0.3894142791
0.3791745356
0.3673027751
0.3540358057
0.3395993332
0.3242079606
0.3080651890
0.2913634169
0.2742839404
0.2569969532
0.2396615467
0.2224257099
0.2054263295
0.1887891897
0.1726289722
0.1570494597
0.1421445372
0.1279974301
0.1146802621
0.1022540546
0.0907687266
0.0802630945
0.0707648728
0.0622820515
0.0547593866
0.0481218447
0.0422974940
0.0372175239
0.0328162456
0.0290310916
0.0258026161
0.0230744946
0.0207935243
0.0189096238
0.0173758332
0.0161483142
0.0151863499
0.0144523449
0.0139118254
0.0135334391
0.0132891513
0.0131553677
0.0131121592
0.0131427197
0.0132333649
0.0133735318
0.0135557717
0.0137993748
0.0141178644
0.0144854735
0.0148805242
0.0152856495
0.0156877926
0.0160782074
0.0164524581
0.0168104197
0.0171562774
0.0174985270
0.0178499750
0.0182277380
0.0186532435
0.0191522292
0.0197547435
0.0204951451
0.0214121035
0.0225483039
0.0239484917
0.0256606843
0.0277372041
0.0302092086
0.0330278976
0.0364625414
0.0407933697
0.0462472523
0.0529976987
0.0611648582
0.0708155201
0.0819631137
0.0945677078
0.1085360115
0.1237213735
0.1399237825
0.1568898669
0.1743128952
0.1918330026
0.2090211554
0.2252398321
0.2398606959
0.2523477834
0.2622575053
0.2692389059
0.2730356700
0.2734850241
0.2705165785
0.2641512042
0.2547000497
0.2426251738
0.2284001109
0.2125100404
0.1954512061
0.1777308322
0.1598671226
0.1423892609
0.1257111828
0.1100677767
0.0958026645
0.0831366945
0.0721613914
0.0628389559
0.0550022648
0.0483548711
0.0424710039
0.0367955686
0.0306441466
0.0234331231
0.0134535696
-0.0020234492
-0.0237188092
-0.0502244803
-0.0780035132
-0.1013900395
-0.1130417166
-0.1062498788
-0.0677871549
0.0111658753
0.1325699324
0.2915270373
0.4762805116
0.6682149774
0.8394618662
0.9539103142
0.9881732951
0.9358458148
0.8065778467
0.6236611390
0.4177981321
0.2153873732
0.0378667466
-0.1002542003
-0.1959106655
-0.2503708982
-0.2676271708
-0.2543962179
-0.2201200058
-0.1768823045
-0.1346884658
-0.0974218839
-0.0672929704
-0.0452145621
-0.0308015267
-0.0223706555
-0.0169546798
-0.0124155972
-0.0084808553
-0.0047236310
-0.0008017597
0.0035422641
0.0084812872
0.0141034977
0.0204124246
0.0273606814
0.0350218291
0.0434653450
0.0527405082
0.0628808276
0.0739040178
0.0858117033
0.0985895106
0.1122072907
0.1266191245
0.1417633222
0.1575624238
0.1739231988
0.1907366461
0.2078779946
0.2252578217
0.2427995150
0.2602451562
0.2773452767
0.2938680252
0.3095991680
0.3243420889
0.3379177893
0.3501648879
0.3609396211
0.3701158427
0.3775850240
0.3832562538
0.3870562386
0.3889293023
0.3888373691
0.3867597170
0.3826930322
0.3766120771
0.3684938763
0.3585529891
0.3470132307
0.3340901115
0.3199909113
0.3049146198
0.2890519056
0.2725851161
0.2556882774
0.2385270946
0.2212589514
0.2040329100
0.1869897120
0.1702617772
0.1539732044
0.1382397712
0.1231689339
0.1088598277
0.0954032663
0.0828817425
0.0713733327
0.0608931831
0.0513884524
0.0428060366
0.0350939095
0.0282011083
0.0220777336
0.0166749494
0.0119449832
0.0078411259
0.0043177316
0.0013302182
-0.0011649334
-0.0032101786
-0.0048469095
-0.0061154549
-0.0070550798
-0.0077039863
-0.0080993128
-0.0082771342
-0.0082724622
-0.0081192450
-0.0078503674
-0.0074976507
-0.0070916220
-0.0066212888
-0.0060782997
-0.0054793320
-0.0048390598
-0.0041702016
-0.0034835227
-0.0027878351
-0.0020899970
-0.0013948953
-0.0007052890
-0.0000218880
0.0006565520
0.0013332289
0.0020132940
0.0027038517
0.0034139601
0.0041546306
0.0049388279
0.0057814701
0.0066994288
0.0077115288
0.0088385485
0.0101032195
0.0115302268
0.0131369765
0.0147675048
0.0165632251
0.0187742742
0.0216192287
0.0252863238
0.0299335185
0.0356884951
0.0426486593
0.0508811403
0.0604227906
0.0712801862
0.0834296265
0.0968171343
0.1113584558
0.1269390606
0.1434141419
0.1606086160
0.1783166062
0.1961840748
0.2135987951
0.2299742083
0.2447915645
0.2575999225
0.2680161499
0.2757249231
0.2804787271
0.2820979132
0.2804725264
0.2755558208
0.2675381294
0.2568491243
0.2439276821
0.2292141343
0.2131502593
0.1961791483
0.1787452266
0.1612943703
0.1442739109
0.1281207575
0.1129020474
0.0988851248
0.0864004502
0.0756268949
0.0665917405
0.0591706796
0.0530878152
0.0479156609
0.0430751411
0.0378355906
0.0313147551
0.0224787906
0.0101330531
-0.0072325006
-0.0299102525
-0.0562166951
-0.0824889679
-0.1030848573
-0.1103827973
-0.0970692273
-0.0548202672
0.0255792950
0.1468204786
0.3049614044
0.4894272943
0.6830104717
0.8614021312
0.9925209145
1.0515773760
1.0277717395
0.9243397585
0.7585527157
0.5601012588
0.3526215147
0.1560215880
-0.0141293460
-0.1479498843
-0.2412463809
-0.2953935183
-0.3130110946
-0.3023592741
-0.2731599366
-0.2336443836
-0.1905533382
-0.1491369462
-0.1131548024
-0.0848759589
-0.0646401808
-0.0504921521
-0.0407363166
-0.0339371862
-0.0288999899
-0.0246706735
-0.0205359001
-0.0160230494
-0.0109002183
-0.0051762206
0.0009066875
0.0073842847
0.0144522072
0.0221641646
0.0305652545
0.0396919547
0.0495715403
0.0602216961
0.0716514036
0.0838610321
0.0968423396
0.1105784718
0.1250439631
0.1402047357
0.1560249349
0.1726143322
0.1898798932
0.2076293849
0.2256774494
0.2438456032
0.2619622378
0.2798626195
0.2973888892
0.3143900629
0.3307220310
0.3462475589
0.3608362869
0.3743647299
0.3867162775
0.3977811943
0.4074566282
0.4156474781
0.4222671334
0.4272360330
0.4304814903
0.4319376936
0.4315457060
0.4292534659
0.4249682761
0.4186532454
0.4104997020
0.4007010276
0.3894441241
0.3769094143
0.3632708414
0.3486958692
0.3333454821
0.3173741852
0.3009300042
0.2841544851
0.2671826948
0.2501432206
0.2331581706
0.2163431733
0.1998073779
0.1836534473
0.1679765586
0.1528633354
0.1383936666
0.1246409615
0.1116721502
0.0995476831
0.0883215315
0.0780437143
0.0687464995
0.0603814342
0.0528900041
0.0462155265
0.0403031502
0.0350998554
0.0305544540
0.0266175891
0.0232417355
0.0203811996
0.0179921189
0.0160324628
0.0144620321
0.0132424589
0.0123372070
0.0117115717
0.0113326813
0.0111699344
0.0111955704
0.0113838020
0.0117106733
0.0121540601
0.0126936696
0.0133110404
0.0139895106
0.0147141454
0.0154718208
0.0162512438
0.0170429533
0.0178393196
0.0186345443
0.0194246607
0.0202075335
0.0209951583
0.0218478517
0.0227432373
0.0236498793
0.0245416169
0.0253975643
0.0262021109
0.0269449211
0.0276209366
0.0282313429
0.0287851015
0.0292968469
0.0297864887
0.0302792117
0.0308054757
0.0314010156
0.0321068414
0.0329692382
0.0340397661
0.0353752606
0.0370378317
0.0390948652
0.0416190213
0.0446882359
0.0483857195
0.0527999579
0.0580247121
0.0641590180
0.0713071866
0.0795788041
0.0890887317
0.0999572786
0.1122784544
0.1259877522
0.1409529477
0.1570050411
0.1739437296
0.1915386104
0.2095291803
0.2276248357
0.2455048727
0.2628185097
0.2791849836
0.2941934708
0.3074030469
0.3183426875
0.3265457946
0.3318259268
0.3341727109
0.3336225080
0.3302579650
0.3242080144
0.3156478740
0.3047990476
0.2919293241
0.2773527783
0.2614297703
0.2445669460
0.2272172373
0.2098823107
0.1930391127
0.1767747452
0.1613772190
0.1471091879
0.1341517758
0.1226045767
0.1124856554
0.1037315464
0.0961972549
0.0896562563
0.0838004961
0.0782403905
0.0725048256
0.0660411579
0.0584480075
0.0478389637
0.0323491179
0.0114831850
-0.0138843957
-0.0415094603
-0.0677781204
-0.0877111052
-0.0966914697
-0.0860984467
-0.0471538410
0.0254136032
0.1333731197
0.2749933860
0.4450425230
0.6348122877
0.8302893143
1.0012711092
1.1209131732
1.1723474973
1.1486826658
1.0530038574
0.8981629439
0.7042664511
0.4961686905
0.2948478713
0.1159809733
-0.0300562528
-0.1381892855
-0.2071242814
-0.2365646940
-0.2360075877
-0.2147499878
-0.1807551122
-0.1406523711
-0.0997363277
-0.0619634292
-0.0299552001
-0.0049993575
0.0129501892
0.0252753137
0.0343267013
0.0412240751
0.0465512365
0.0508281842
0.0545111144
0.0579924207
0.0616006942
0.0656007231
0.0701934933
0.0755161878
0.0816421874
0.0885810698
0.0962786105
0.1046167821
0.1134637116
0.1229857598
0.1332509152
0.1442794710
0.1560799067
0.1686483301
0.1819664243
0.1960032969
0.2107162424
0.2260507416
0.2419404622
0.2583072584
0.2750611804
0.2921006148
0.3093122573
0.3265709935
0.3437398959
0.3607048977
0.3773920698
0.3936011623
0.4091380225
0.4238242678
0.4374972852
0.4500102317
0.4612320341
0.4710473892
0.4793567635
0.4860763934
0.4911382853
0.4944902151
0.4960960513
0.4959371323
0.4940111252
0.4903314670
0.4849273649
0.4778437959
0.4691108774
0.4587091292
0.4468124991
0.4336097426
0.4192821263
0.4040034279
0.3879399360
0.3712504504
0.3540862817
0.3365912518
0.3189016934
0.3011464505
0.2834468779
0.2659168416
0.2486627185
0.2317833968
0.2153702753
0.1995072643
0.1842707848
0.1697294754
0.1559427337
0.1429618214
0.1308305104
0.1195936052
0.1093035006
0.0999199778
0.0913915894
0.0836682793
0.0767013770
0.0704436228
0.0648491691
0.0598735808
0.0554738349
0.0516083208
0.0482368401
0.0453206067
0.0428222469
0.0407057991
0.0389367140
0.0374818548
0.0363094967
0.0353893274
0.0346924468
0.0341913671
0.0338602609
0.0336763913
0.0336191288
0.0336692580
0.0338089760
0.0340218923
0.0342930285
0.0346088185
0.0349571085
0.0353271571
0.0357096350
0.0360981190
0.0365188957
0.0369729804
0.0374474770
0.0379315553
0.0384164516
0.0388954677
0.0393639718
0.0398193980
0.0402612465
0.0406910836
0.0411125414
0.0415313184
0.0419551788
0.0423938431
0.0428582538
0.0433610278
0.0439168462
0.0445424561
0.0452566704
0.0460803682
0.0470364943
0.0481499943
0.0494477541
0.0509587114
0.0526935179
0.0546793613
0.0570595679
0.0599709130
0.0635366203
0.0678663624
0.0730562603
0.0791888835
0.0863332502
0.0945448272
0.1038655299
0.1143237222
0.1259342166
0.1386982743
0.1526035855
0.1676241196
0.1838121237
0.2009313202
0.2185315767
0.2361893057
0.2535074644
0.2701155550
0.2856696246
0.2998522650
0.3123726131
0.3229663506
0.3313957040
0.3374494448
0.3409428894
0.3417178990
0.3396428796
0.3345945941
0.3264267772
0.3155614360
0.3025151986
0.2877681273
0.2717637192
0.2549089060
0.2375740539
0.2200930138
0.2027635748
0.1858472513
0.1695689956
0.1541171951
0.1396436713
0.1262636804
0.1140559135
0.1030625964
0.0932896997
0.0847066883
0.0772464617
0.0708944799
0.0655623369
0.0603461495
0.0543418011
0.0467240911
0.0367467345
0.0237423627
0.0071225228
-0.0136223219
-0.0389363247
-0.0677889417
-0.0948165560
-0.1141333680
-0.1200872870
-0.1072600935
-0.0704673752
-0.0047584158
0.0946200720
0.2323089236
0.4005345170
0.5856928389
0.7725886002
0.9444352362
1.0828549064
1.1678784948
1.1783658092
1.1087276636
0.9669235385
0.7740900800
0.5648454227
0.3622384582
0.1847192794
0.0439477748
-0.0547024891
-0.1128577527
-0.1350103720
-0.1273992501
-0.0980098369
-0.0565741198
-0.0136322912
0.0252253884
0.0574342500
0.0817478957
0.0982486370
0.1083474949
0.1147350991
0.1193682410
0.1229086578
0.1259852760
0.1290819109
0.1325372669
0.1365449370
0.1411534032
0.1462955053
0.1520475260
0.1584827327
0.1656484312
0.1735827850
0.1823148155
0.1918644017
0.2022422802
0.2134500455
0.2254801495
0.2383158699
0.2519441096
0.2664536608
0.2817390568
0.2976398443
0.3139972412
0.3306541363
0.3474550901
0.3642463340
0.3808757707
0.3971929741
0.4130491895
0.4282973330
0.4427919925
0.4563894266
0.4689475654
0.4803260103
0.4903860336
0.4989905790
0.5060042616
0.5112933675
0.5147258540
0.5161713497
0.5153653226
0.5121924644
0.5068526299
0.4995418303
0.4904504398
0.4797629211
0.4676578148
0.4543077400
0.4398793941
0.4245335528
0.4084251263
0.3917035793
0.3745126935
0.3569903308
0.3392684314
0.3214730138
0.3037241747
0.2861360893
0.2688170109
0.2518692714
0.2353892807
0.2194675271
0.2041885774
0.1896310765
0.1758677476
0.1629653924
0.1509848907
0.1399811950
0.1299663744
0.1208789983
0.1126568562
0.1052400434
0.0985709610
0.0925943159
0.0872571209
0.0825086948
0.0783006620
0.0745869528
0.0713238034
0.0684697558
0.0659856579
0.0638346635
0.0619822319
0.0603961287
0.0590464250
0.0579054979
0.0569480304
0.0561510112
0.0554937348
0.0549578018
0.0545271184
0.0541878966
0.0539286056
0.0537386992
0.0536084996
0.0535305622
0.0534997481
0.0535132244
0.0535704641
0.0536853769
0.0539038071
0.0541974190
0.0545339105
0.0548870521
0.0552366916
0.0555687539
0.0558752414
0.0561542339
0.0564098885
0.0566524395
0.0568981987
0.0571695552
0.0574949755
0.0579090032
0.0584522596
0.0591714430
0.0601193293
0.0613547871
0.0629432826
0.0649569875
0.0674741887
0.0705792502
0.0743626135
0.0789207975
0.0843563983
0.0907780893
0.0983006215
0.1070448228
0.1171375990
0.1287847053
0.1419946811
0.1564879538
0.1719742914
0.1881552341
0.2047240943
0.2213659564
0.2377576771
0.2535678853
0.2684569818
0.2820771400
0.2940723050
0.3040781945
0.3117223115
0.3166244971
0.3183971245
0.3166696423
0.3115176291
0.3033758709
0.2926756455
0.2798349715
0.2652586090
0.2493380802
0.2324516741
0.2149644218
0.1972280953
0.1795812075
0.1623490122
0.1458435040
0.1303634186
0.1161942321
0.1038450415
0.0946178724
0.0875584013
0.0814873031
0.0754021967
0.0684776454
0.0600651566
0.0496931711
0.0370664802
0.0220659329
0.0047492496
-0.0146489046
-0.0357169208
-0.0578662456
-0.0803313816
-0.1021671820
-0.1186489731
-0.1178935045
-0.0902795323
-0.0295642195
0.0671168632
0.1992497382
0.3629420204
0.5508598948
0.7449288109
0.9144153840
1.0333282634
1.0822871144
1.0491294013
0.9342465618
0.7520619350
0.5428570579
0.3402012386
0.1657053424
0.0333593244
-0.0522153698
-0.0944143041
-0.0995699541
-0.0765936078
-0.0369753664
0.0060833757
0.0449150237
0.0762680206
0.0987478493
0.1128203861
0.1208119011
0.1260970555
0.1298874737
0.1329822336
0.1360107534
0.1394066992
0.1434079848
0.1480567720
0.1532906458
0.1592265569
0.1659348704
0.1734683258
0.1818665643
0.1911562727
0.2013513072
0.2124524534
0.2244473970
0.2373107238
0.2510334536
0.2656595078
0.2810199939
0.2969213350
0.3131713379
0.3295791934
0.3459554760
0.3621121439
0.3778625392
0.3930213877
0.4074047990
0.4208302666
0.4331166677
0.4440842632
0.4535546980
0.4613510005
0.4672975832
0.4712202422
0.4729415016
0.4721497806
0.4688804032
0.4633351560
0.4557130382
0.4462100222
0.4350190531
0.4223300488
0.4083299000
0.3932024705
0.3771285469
0.3602857433
0.3428486200
0.3249887099
0.3068745190
0.2886715261
0.2705421826
0.2526459129
0.2351391143
0.2181751569
0.2019043835
0.1864741099
0.1720286247
0.1587091891
0.1466125270
0.1356842503
0.1258579634
0.1170682209
0.1092474396
0.1023294065
0.0962498559
0.0909464681
0.0863588706
0.0824286375
0.0790992893
0.0763162936
0.0740270645
0.0721809628
0.0707292960
0.0696253182
0.0688242305
0.0682831804
0.0679612622
0.0678195169
0.0678209322
0.0679304424
0.0681149288
0.0683432189
0.0685860874
0.0688436068
0.0691449457
0.0694629049
0.0697734892
0.0700603740
0.0703114849
0.0705183462
0.0706760809
0.0707834106
0.0708426553
0.0708597340
0.0708441972
0.0708093524
0.0707721532
0.0707531519
0.0707764993
0.0708699449
0.0710648369
0.0713961221
0.0719023459
0.0726256524
0.0736117842
0.0749100827
0.0765124909
0.0785286614
0.0812302288
0.0848497759
0.0895793752
0.0955697954
0.1029289827
0.1117239546
0.1219812192
0.1336867749
0.1467861104
0.1611842050
0.1767455281
0.1932940396
0.2107320015
0.2286164899
0.2461163033
0.2625007123
0.2771436421
0.2895236723
0.2992240368
0.3059326240
0.3094419768
0.3096492924
0.3065564223
0.3002698727
0.2910008040
0.2790650310
0.2648403049
0.2488944129
0.2319239559
0.2145437599
0.1972854997
0.1805978619
0.1648465450
0.1503142595
0.1372007275
0.1256226833
0.1156138301
0.1071245414
0.1000220386
0.0941793893
0.0891211199
0.0839210780
0.0775266151
0.0687608039
0.0563224390
0.0387860362
0.0148503211
-0.0128674217
-0.0383726937
-0.0547189420
-0.0540470108
-0.0275851415
0.0340478998
0.1364929254
0.2799952351
0.4563808780
0.6483613676
0.8295336819
0.9643795837
1.0143374364
0.9748616117
0.8589463876
0.6857327133
0.4805082096
0.2747071686
0.1019819385
-0.0273444064
-0.1114463000
-0.1519998953
-0.1548144947
-0.1298325505
-0.0905765933
-0.0478751591
-0.0084549316
0.0233979829
0.0458510376
0.0595252449
0.0674949696
0.0731299955
0.0772396489
0.0806626639
0.0840417994
0.0878238393
0.0922595926
0.0974038933
0.1031565994
0.1096062651
0.1168423762
0.1249208340
0.1338829689
0.1437555304
0.1545506866
0.1662660247
0.1788845505
0.1923746889
0.2066902833
0.2217778551
0.2376744616
0.2542244230
0.2712027215
0.2883900334
0.3055727290
0.3225428728
0.3390987382
0.3550467098
0.3701995754
0.3843758170
0.3973996107
0.4091008266
0.4193150291
0.4278834767
0.4346531220
0.4394766116
0.4422122863
0.4426994156
0.4405973960
0.4360326443
0.4292530333
0.4204982531
0.4099998118
0.3979810352
0.3846570670
0.3702348684
0.3549132185
0.3388827141
0.3223257698
0.3054166179
0.2883213085
0.2711973887
0.2541925223
0.2374456293
0.2210874472
0.2052405310
0.1900192537
0.1755298059
0.1618701961
0.1491302297
0.1373909140
0.1267243689
0.1171855929
0.1087346911
0.1012893087
0.0947707029
0.0891032574
0.0842144820
0.0800350132
0.0764986135
0.0735421720
0.0711057041
0.0691323516
0.0675683825
0.0663631914
0.0654692991
0.0648427805
0.0644454015
0.0642430059
0.0642045654
0.0643021782
0.0645110687
0.0648095877
0.0651792124
0.0656045463
0.0660733192
0.0665763876
0.0671077339
0.0676644671
0.0682468226
0.0688704976
0.0696001360
0.0704054763
0.0712475865
0.0720960393
0.0729289124
0.0737327884
0.0745027549
0.0752424041
0.0759638333
0.0766876446
0.0774425651
0.0782632434
0.0791917586
0.0802786908
0.0815831253
0.0831726521
0.0851233661
0.0875198673
0.0904552649
0.0940315696
0.0983599988
0.1035603466
0.1097609117
0.1170984980
0.1257184141
0.1357744735
0.1473907152
0.1605300545
0.1750686234
0.1908213614
0.2075419495
0.2249228110
0.2425951108
0.2601287559
0.2770323949
0.2927534424
0.3066782390
0.3181437984
0.3266895659
0.3320641736
0.3341113635
0.3327813011
0.3281305752
0.3203221984
0.3096256063
0.2964166582
0.2811776369
0.2644972484
0.2470706224
0.2295440857
0.2122809400
0.1957302206
0.1802513350
0.1661071626
0.1534640549
0.1423918353
0.1328637992
0.1247567138
0.1178508185
0.1118298245
0.1062942490
0.1008797977
0.0935102303
0.0822330781
0.0659958168
0.0446458657
0.0189305883
-0.0093612277
-0.0334234774
-0.0434920386
-0.0308586945
0.0120550852
0.0916982232
0.2139838190
0.3807597656
0.5693299479
0.7535367594
0.9080418536
1.0083261439
1.0306898040
0.9598694830
0.8167483209
0.6302319879
0.4262516213
0.2277715896
0.0547889962
-0.0769982379
-0.1648363158
-0.2124004984
-0.2249456024
-0.2092937322
-0.1738342798
-0.1285239252
-0.0845250709
-0.0475978373
-0.0182953721
0.0034975581
0.0185274660
0.0281721443
0.0344406651
0.0396494936
0.0444619915
0.0491597033
0.0540133836
0.0592357168
0.0649813164
0.0713467254
0.0783704164
0.0860337287
0.0943429172
0.1033652905
0.1131526816
0.1237436244
0.1351607603
0.1474107937
0.1604844919
0.1743566854
0.1889862678
0.2043161959
0.2202735230
0.2367695191
0.2536995610
0.2709430884
0.2883636043
0.3058743209
0.3233313564
0.3404896917
0.3571208075
0.3730128694
0.3879707283
0.4018159198
0.4143866646
0.4255378685
0.4351411221
0.4430847012
0.4492733566
0.4536256856
0.4560749303
0.4565709731
0.4550803814
0.4515664945
0.4458403175
0.4380487651
0.4284282680
0.4172057270
0.4045985134
0.3908144686
0.3760519045
0.3604996030
0.3443368166
0.3277332678
0.3108491497
0.2938351253
0.2768323284
0.2599723625
0.2433773019
0.2271596909
0.2114225442
0.1962593468
0.1817540538
0.1679812923
0.1550093475
0.1428995212
0.1317036565
0.1214641188
0.1122179898
0.1039308954
0.0965383926
0.0899785517
0.0841919615
0.0791217654
0.0747136388
0.0709157701
0.0676788612
0.0649561270
0.0627032957
0.0608786085
0.0594428199
0.0583591976
0.0575935223
0.0571140880
0.0568917018
0.0568996841
0.0571138684
0.0575126014
0.0580765089
0.0587843556
0.0596135387
0.0605438338
0.0615575298
0.0626394289
0.0637768463
0.0649596104
0.0661800627
0.0674330582
0.0687375948
0.0701409787
0.0716026425
0.0730822793
0.0745465214
0.0759689399
0.0773300451
0.0786172864
0.0798250519
0.0809546692
0.0820144045
0.0830194633
0.0839919901
0.0849610684
0.0859627207
0.0870401179
0.0882480560
0.0896528848
0.0913280886
0.0933540904
0.0958182527
0.0988148765
0.1024452023
0.1068174093
0.1120466080
0.1182547410
0.1255706138
0.1341299693
0.1440727645
0.1554483192
0.1682095417
0.1822631147
0.1974607435
0.2135991561
0.2304201028
0.2476103566
0.2648017129
0.2815709898
0.2974400277
0.3118756898
0.3243267289
0.3344249673
0.3418325168
0.3462977714
0.3476702541
0.3459006173
0.3410406425
0.3332432404
0.3227624508
0.3099534430
0.2952725152
0.2792770949
0.2624953220
0.2453306862
0.2282602052
0.2116914421
0.1959606741
0.1813328925
0.1680018029
0.1560898247
0.1456480917
0.1366564515
0.1290234662
0.1225864116
0.1171274709
0.1124688534
0.1075851161
0.1012864981
0.0924758604
0.0801485487
0.0633923938
0.0413799803
0.0141308809
-0.0133765950
-0.0346357455
-0.0429566095
-0.0314659544
0.0068925834
0.0793584902
0.1917868935
0.3417700437
0.5198113457
0.7104429453
0.8922257297
1.0377493272
1.1145953026
1.1061556688
1.0162832616
0.8596629211
0.6622039098
0.4539826956
0.2582107845
0.0919360578
-0.0351961099
-0.1193425353
-0.1623792306
-0.1722758813
-0.1570141731
-0.1244320104
-0.0822235168
-0.0379390351
0.0010182592
0.0303506908
0.0515865042
0.0664419515
0.0765001993
0.0832113287
0.0878923358
0.0917271310
0.0955638508
0.0995829644
0.1039034007
0.1086301643
0.1138535637
0.1196492113
0.1260780520
0.1331879200
0.1410143315
0.1495783020
0.1589202448
0.1690834640
0.1800703451
0.1918714057
0.2044653029
0.2178188323
0.2318867910
0.2466118821
0.2619249264
0.2777448843
0.2939788565
0.3105220837
0.3272579465
0.3440579657
0.3607818020
0.3772772561
0.3933802689
0.4089149211
0.4236934335
0.4375161671
0.4501716227
0.4614364354
0.4711757912
0.4793217465
0.4857649747
0.4904187371
0.4932188832
0.4941238505
0.4931146648
0.4901949396
0.4853908769
0.4787512664
0.4703474861
0.4602735020
0.4486458683
0.4356037271
0.4213088087
0.4059454314
0.3897205018
0.3728635142
0.3555781772
0.3379597362
0.3201903937
0.3024442557
0.2848796719
0.2676392357
0.2508497903
0.2346230812
0.2190563230
0.2042311080
0.1902132719
0.1770528942
0.1647842980
0.1534260501
0.1429809609
0.1334360845
0.1247628113
0.1169170215
0.1098535317
0.1035764565
0.0980329857
0.0931636551
0.0889116472
0.0852227907
0.0820455612
0.0793310805
0.0770331171
0.0751080860
0.0735150484
0.0722157125
0.0711744326
0.0703582102
0.0697367613
0.0692825901
0.0689708649
0.0687794005
0.0686886582
0.0686817460
0.0687444182
0.0688650756
0.0690487214
0.0693037718
0.0696117132
0.0699560039
0.0703224944
0.0706994269
0.0710774361
0.0714495482
0.0718111819
0.0721601476
0.0724966479
0.0728232773
0.0731450224
0.0734692619
0.0738057663
0.0741666984
0.0745666102
0.0750217977
0.0755494409
0.0761688984
0.0769019206
0.0777726499
0.0788076208
0.0800357598
0.0814883856
0.0831936539
0.0851167271
0.0874128223
0.0902812766
0.0938957352
0.0984041513
0.1039287864
0.1105662096
0.1183872984
0.1274372381
0.1377355222
0.1492759522
0.1620266374
0.1759299956
0.1909027523
0.2068359411
0.2236851654
0.2412331530
0.2588156330
0.2758209131
0.2917067587
0.3060003923
0.3182984942
0.3282672017
0.3356421096
0.3402282701
0.3419001929
0.3406018450
0.3363466506
0.3292174916
0.3193667070
0.3070113327
0.2924126056
0.2761264618
0.2587356381
0.2407628499
0.2226707909
0.2048621331
0.1876795272
0.1714056019
0.1562629647
0.1424142006
0.1299610585
0.1189428809
0.1093385550
0.1010669466
0.0939868994
0.0879712264
0.0827973260
0.0774133994
0.0707524088
0.0618230917
0.0497100544
0.0335737109
0.0126502351
-0.0137745444
-0.0426877134
-0.0673779749
-0.0812183855
-0.0777718180
-0.0507909623
0.0057816753
0.0978137716
0.2311130774
0.3990994293
0.5854236916
0.7715944097
0.9370108052
1.0589633073
1.1126329465
1.0859157811
0.9639672238
0.7503621851
0.5332638257
0.3304716428
0.1551672922
0.0210814233
-0.0665670642
-0.1110754544
-0.1187739371
-0.0981273796
-0.0597353272
-0.0161840492
0.0232634715
0.0555425867
0.0793388242
0.0948405466
0.1037389510
0.1091361619
0.1130746261
0.1162053264
0.1191259520
0.1222787496
0.1259513510
0.1302759029
0.1352300093
0.1408178881
0.1471463671
0.1542774342
0.1622591288
0.1711255419
0.1808968138
0.1915791062
0.2031646120
0.2156315752
0.2289442913
0.2430558828
0.2579917432
0.2736290791
0.2897689004
0.3062147428
0.3227726675
0.3392512612
0.3554616364
0.3712174312
0.3863348090
0.4006324591
0.4139311179
0.4260520449
0.4368185017
0.4460562754
0.4535936787
0.4592615499
0.4628932530
0.4642648714
0.4632057846
0.4598661838
0.4544109837
0.4470052607
0.4378142536
0.4270033636
0.4147381537
0.4011843494
0.3865078384
0.3708746705
0.3544510577
0.3374033741
0.3198981564
0.3021021030
0.2841820748
0.2663050949
0.2486383485
0.2313495730
0.2146085089
0.1985856014
0.1834514581
0.1693755218
0.1564114580
0.1445024154
0.1336052486
0.1236764363
0.1146720767
0.1065477637
0.0992585799
0.0927592264
0.0870040285
0.0819469364
0.0775415244
0.0737409915
0.0704981614
0.0677654821
0.0654950262
0.0636384908
0.0621471976
0.0609720926
0.0600637467
0.0593723549
0.0588476079
0.0584381325
0.0581275879
0.0579236848
0.0578117577
0.0577784189
0.0578115591
0.0579003466
0.0580352283
0.0582079287
0.0584114508
0.0586400754
0.0588893614
0.0591561459
0.0594385440
0.0597359489
0.0600490318
0.0603797421
0.0607313073
0.0611082327
0.0615163021
0.0619625770
0.0624551401
0.0629979305
0.0636165958
0.0643532190
0.0652582366
0.0663914740
0.0678227597
0.0696319273
0.0719088144
0.0747532636
0.0782751215
0.0825942397
0.0878404778
0.0941539503
0.1016851809
0.1105947348
0.1210620345
0.1331078011
0.1465715816
0.1612485008
0.1768911465
0.1932095694
0.2098712829
0.2265012635
0.2426819504
0.2579532456
0.2718125143
0.2837145841
0.2930722440
0.2992611317
0.3018727550
0.3009775549
0.2967437506
0.2893917149
0.2791939741
0.2664752083
0.2516122511
0.2350340899
0.2172218654
0.1987088724
0.1800805588
0.1619745266
0.1448261957
0.1287072875
0.1140230407
0.1010382544
0.0898601415
0.0804383282
0.0725648544
0.0658741736
0.0598431527
0.0537910723
0.0468796264
0.0381134307
0.0263182640
0.0093708581
-0.0134344434
-0.0404900785
-0.0678752670
-0.0893560105
-0.0963850923
-0.0815373263
-0.0344773493
0.0544254316
0.1866377566
0.3554555953
0.5460042424
0.7352383184
0.8935160638
0.9857573725
0.9877411265
0.8963695714
0.7297048336
0.5251619774
0.3223345045
0.1492674988
0.0225205704
-0.0471921963
-0.0712416291
-0.0640047974
-0.0376565787
-0.0021693163
0.0346871840
0.0673456539
0.0924413624
0.1088121160
0.1182666548
0.1243238565
0.1283830685
0.1315298609
0.1345980844
0.1381698699
0.1425756285
0.1478940517
0.1539521111
0.1606199359
0.1681281792
0.1765414800
0.1859017448
0.1962295693
0.2075242380
0.2197637249
0.2329046926
0.2468827639
0.2616150019
0.2770436783
0.2930985822
0.3095139523
0.3260234357
0.3423699684
0.3583057751
0.3735923692
0.3880005531
0.4013105882
0.4133127264
0.4238066894
0.4326014874
0.4395154198
0.4443760746
0.4470203284
0.4472788264
0.4447960284
0.4396820781
0.4322063247
0.4226302810
0.4112076232
0.3981841912
0.3837979884
0.3682790180
0.3518475309
0.3347146982
0.3170838332
0.2991504130
0.2811020779
0.2631186319
0.2453720425
0.2280264408
0.2112381211
0.1951555416
0.1799193237
0.1656622526
0.1525092768
0.1405770640
0.1299101609
0.1204272518
0.1120372640
0.1046528814
0.0981905442
0.0925704490
0.0877165491
0.0835565541
0.0800219300
0.0770478995
0.0745734039
0.0725406295
0.0708951491
0.0695862844
0.0685671130
0.0677944694
0.0672289443
0.0668348849
0.0665803950
0.0664373346
0.0663812330
0.0663907795
0.0664481723
0.0665393648
0.0666540671
0.0667857458
0.0669316237
0.0670926804
0.0672939897
0.0675447142
0.0678052844
0.0680458243
0.0682468460
0.0683992486
0.0685043193
0.0685738918
0.0686327273
0.0687180121
0.0688773772
0.0691688414
0.0696608108
0.0704320794
0.0715718284
0.0731796268
0.0753654311
0.0782440389
0.0818606676
0.0864960146
0.0924483944
0.0999309555
0.1090716798
0.1199133830
0.1324137144
0.1464451572
0.1617950279
0.1781654769
0.1951734884
0.2123508799
0.2292266378
0.2451057946
0.2591702070
0.2707501993
0.2793257051
0.2845289875
0.2861447380
0.2841100759
0.2785145490
0.2696001333
0.2577245275
0.2433822169
0.2273627631
0.2103966472
0.1931267942
0.1761083387
0.1598086200
0.1446071828
0.1307957769
0.1185783570
0.1080585310
0.0990833487
0.0916989295
0.0857337125
0.0806331595
0.0754597547
0.0688930049
0.0592295401
0.0445423167
0.0236908174
-0.0021116214
-0.0287947142
-0.0494283728
-0.0542227069
-0.0321656592
0.0260774965
0.1307295584
0.2811875558
0.4651393028
0.6585633981
0.8256898896
0.9257247265
0.9353950845
0.8512227518
0.6888016755
0.4827979613
0.2778075942
0.0974367592
-0.0427993788
-0.1351975710
-0.1800050090
-0.1850696926
-0.1608763669
-0.1212235482
-0.0778035603
-0.0387010629
-0.0083929816
0.0122514923
0.0256499978
0.0342884887
0.0398382434
0.0436885769
0.0469320362
0.0503641570
0.0544834619
0.0594917058
0.0652938866
0.0716009486
0.0786155874
0.0864611915
0.0951954585
0.1048581292
0.1154709883
0.1270378638
0.1395446273
0.1529591939
0.1672315222
0.1822936560
0.1980628376
0.2145621777
0.2316360015
0.2490114749
0.2664280064
0.2836372473
0.3004030920
0.3165016772
0.3317213829
0.3458628314
0.3587388882
0.3701746613
0.3800075018
0.3880870034
0.3942750025
0.3984455785
0.4004850535
0.4002919924
0.3976847171
0.3924893249
0.3849842232
0.3754605557
0.3641968177
0.3514588558
0.3374998123
0.3225577947
0.3068550291
0.2906008625
0.2739919935
0.2572124721
0.2404336997
0.2238144293
0.2075007650
0.1916261626
0.1763114329
0.1616649617
0.1477828311
0.1347485044
0.1226327963
0.1114938729
0.1013772517
0.0923157812
0.0843023100
0.0772582382
0.0710985389
0.0657417410
0.0611099283
0.0571287405
0.0537273722
0.0508386245
0.0484016856
0.0463635661
0.0446751851
0.0432910171
0.0421690919
0.0412709950
0.0405618669
0.0400104037
0.0395888568
0.0392730329
0.0390422943
0.0388795585
0.0387712985
0.0387075425
0.0386818742
0.0387129726
0.0388225650
0.0389854107
0.0391805081
0.0393920205
0.0396092758
0.0398267665
0.0400441501
0.0402662484
0.0405030249
0.0407678547
0.0410763364
0.0414489524
0.0419113499
0.0424943406
0.0432339011
0.0441711725
0.0453524609
0.0468292368
0.0486581353
0.0509008150
0.0535694939
0.0567107471
0.0606458689
0.0656533127
0.0719513905
0.0796982737
0.0889919925
0.0998704361
0.1123113525
0.1262323489
0.1414908915
0.1578843054
0.1751497745
0.1929643397
0.2109638424
0.2286275682
0.2451716428
0.2599042315
0.2722515699
0.2817579645
0.2880857920
0.2910155000
0.2904456063
0.2863926996
0.2789892309
0.2684502184
0.2553740199
0.2404421470
0.2242818361
0.2074660479
0.1905134672
0.1738885038
0.1580012912
0.1432076879
0.1298092765
0.1185306229
0.1100976454
0.1033512760
0.0972021060
0.0907239837
0.0831556952
0.0738981437
0.0625139452
0.0487274289
0.0324246370
0.0136533248
-0.0073770398
-0.0302952754
-0.0538468236
-0.0673833316
-0.0581490986
-0.0167966744
0.0629685016
0.1843881004
0.3475481464
0.5381594607
0.7259911752
0.8797484964
0.9678700395
0.9662463684
0.8802285373
0.7199283047
0.5094469872
0.2878304051
0.0918607628
-0.0747618713
-0.2033584110
-0.2898740675
-0.3352493489
-0.3450980226
-0.3265512365
-0.2905597477
-0.2469652912
-0.2032828139
-0.1647004740
-0.1340796409
-0.1119548959
-0.0965737801
-0.0856096426
-0.0777896369
-0.0720454536
-0.0674762366
-0.0633485826
-0.0590965414
-0.0543216160
-0.0487927619
-0.0424463883
-0.0353863568
-0.0278662730
-0.0197990037
-0.0110246054
-0.0014919199
0.0088366149
0.0199849654
0.0319635017
0.0447689982
0.0583846332
0.0727799891
0.0879110524
0.1037201817
0.1201359340
0.1370731887
0.1544332289
0.1721599506
0.1902269931
0.2083948075
0.2264262917
0.2440990830
0.2612055585
0.2775528345
0.2929627669
0.3072719513
0.3203317227
0.3320081558
0.3421823650
0.3507510865
0.3576259574
0.3627333542
0.3660143932
0.3674249300
0.3669355599
0.3645316176
0.3602131773
0.3539614555
0.3457902739
0.3359031363
0.3245067382
0.3118007614
0.2979778738
0.2832237294
0.2677169682
0.2516292165
0.2351250864
0.2183621764
0.2014910710
0.1846553408
0.1679915425
0.1516292189
0.1356908988
0.1202913065
0.1055355366
0.0915211292
0.0783386106
0.0660714932
0.0547936415
0.0445049160
0.0351628705
0.0267247676
0.0191477538
0.0123888682
0.0064051266
0.0011534871
-0.0034092076
-0.0073262304
-0.0106409705
-0.0133969326
-0.0156377378
-0.0174071228
-0.0187489404
-0.0197071593
-0.0203258642
-0.0206492556
-0.0207216502
-0.0205874803
-0.0202903418
-0.0198703943
-0.0193670856
-0.0188070572
-0.0181789386
-0.0174916187
-0.0167549035
-0.0159775601
-0.0151673159
-0.0143308586
-0.0134738369
-0.0126008597
-0.0117154967
-0.0108202779
-0.0099166941
-0.0090051965
-0.0080851969
-0.0071550675
-0.0062121413
-0.0052527117
-0.0042720327
-0.0032643187
-0.0022227449
-0.0011394469
-0.0000055208
0.0011881449
0.0024482037
0.0037694441
0.0050784459
0.0064356339
0.0079310797
0.0096533913
0.0116897129
0.0141257251
0.0170456448
0.0205322253
0.0246667624
0.0295290939
0.0351975941
0.0417491737
0.0492592794
0.0578018946
0.0674495388
0.0782732677
0.0903426734
0.1037258843
0.1184907602
0.1346328258
0.1517978035
0.1695600868
0.1875047754
0.2052299944
0.2223448264
0.2384684411
0.2532300957
0.2662691342
0.2772349881
0.2857871757
0.2915953028
0.2943390622
0.2937176780
0.2897730190
0.2828644167
0.2733628025
0.2616415716
0.2480765834
0.2330461609
0.2169310914
0.2001146258
0.1829824793
0.1659228308
0.1493263232
0.1335860632
0.1190832084
0.1056909368
0.0935530302
0.0829490268
0.0739960309
0.0666495874
0.0607036828
0.0557907447
0.0513816419
0.0467856848
0.0411506247
0.0334626546
0.0225464087
0.0070649853
-0.0172148313
-0.0539497559
-0.0914866231
-0.1192135531
-0.1286264385
-0.1133289443
-0.0690325081
0.0064436600
0.1131725775
0.2491194894
0.4101418682
0.5899894138
0.7793737756
0.9484814967
1.0639927293
1.1062668662
1.0682728166
0.9555890043
0.7864033674
0.5876662857
0.3793788057
0.1811333405
0.0077020012
-0.1314486228
-0.2321574639
-0.2945460319
-0.3200327134
-0.3172140140
-0.2945631282
-0.2594663681
-0.2182231635
-0.1760460619
-0.1370607282
-0.1043059453
-0.0796827103
-0.0623087958
-0.0501586922
-0.0417061295
-0.0356595714
-0.0309644006
-0.0268014355
-0.0225858597
-0.0179672183
-0.0128294178
-0.0072907262
-0.0014468162
0.0049187012
0.0118584750
0.0194161116
0.0276282389
0.0365243373
0.0461269952
0.0564519504
0.0675080909
0.0792974539
0.0918152266
0.1050497458
0.1189824981
0.1335881195
0.1488763987
0.1649867957
0.1817798746
0.1990804487
0.2167194875
0.2345369021
0.2523798528
0.2701012552
0.2875597718
0.3046198120
0.3211515323
0.3370308356
0.3521393722
0.3663645390
0.3795994799
0.3917430855
0.4026999935
0.4123805884
0.4207010015
0.4275831111
0.4329545424
0.4367486674
0.4389046049
0.4393672208
0.4380871278
0.4350206854
0.4300971475
0.4233153257
0.4148528945
0.4048873385
0.3935862245
0.3811092471
0.3676104705
0.3532383486
0.3381357249
0.3224398325
0.3062822942
0.2897891224
0.2730807191
0.2562718760
0.2394719484
0.2227853305
0.2063109571
0.1901421529
0.1743666321
0.1590664984
0.1443182454
0.1301927563
0.1167553037
0.1040655500
0.0921775472
0.0811414369
0.0709903181
0.0616827297
0.0531669108
0.0453962947
0.0383278993
0.0319200830
0.0261325156
0.0209261785
0.0162633649
0.0121076794
0.0084240383
0.0051786695
0.0023391125
-0.0001257815
-0.0022458498
-0.0040496182
-0.0055643007
-0.0068157997
-0.0078287060
-0.0086262990
-0.0092305463
-0.0096621038
-0.0099403161
-0.0100832159
-0.0101075245
-0.0100286513
-0.0098606945
-0.0096165979
-0.0093098493
-0.0089538349
-0.0085576916
-0.0080913226
-0.0075571609
-0.0069705871
-0.0063449803
-0.0056917177
-0.0050201751
-0.0043377267
-0.0036498749
-0.0029609172
-0.0022734513
-0.0015880733
-0.0009033782
-0.0002159590
0.0004795928
0.0011906873
0.0019267365
0.0026991536
0.0035213538
0.0044087538
0.0053787720
0.0064508284
0.0076463856
0.0089894696
0.0105065153
0.0122259685
0.0141782764
0.0163437726
0.0187806621
0.0216606813
0.0251371938
0.0293447006
0.0343988394
0.0403963849
0.0474152486
0.0555144791
0.0647342618
0.0750959193
0.0866019107
0.0992358325
0.1129624177
0.1277275367
0.1434581964
0.1600665499
0.1775840291
0.1956306574
0.2136664791
0.2312008620
0.2477924322
0.2630490874
0.2766280513
0.2882358751
0.2976284377
0.3046109453
0.3090379319
0.3108132590
0.3098901156
0.3062710181
0.3000078740
0.2912025813
0.2799976566
0.2665905315
0.2514608118
0.2350988520
0.2179514009
0.2004216016
0.1828689915
0.1656095020
0.1489154592
0.1330155830
0.1180949879
0.1042951824
0.0917140223
0.0804048595
0.0703766369
0.0615946634
0.0539806421
0.0474255963
0.0420578243
0.0372464086
0.0320904728
0.0257569238
0.0174804516
0.0065635295
-0.0076235859
-0.0256428551
-0.0479884553
-0.0749962738
-0.1036029628
-0.1277819851
-0.1417140630
-0.1398787333
-0.1170543478
-0.0683180728
0.0109541105
0.1254450165
0.2783441120
0.4571170484
0.6458003435
0.8279262994
0.9865214506
1.1041064937
1.1626962875
1.1442366204
1.0480254897
0.8871940511
0.6845618842
0.4742211715
0.2781426985
0.1116155312
-0.0160778141
-0.1011379563
-0.1465975802
-0.1585979952
-0.1441403926
-0.1110858457
-0.0681553094
-0.0248970214
0.0118762749
0.0411692590
0.0630098254
0.0780267543
0.0874496701
0.0931079544
0.0972459571
0.1007809265
0.1040591162
0.1074064436
0.1110766068
0.1152510842
0.1200391350
0.1254777988
0.1315382343
0.1382557378
0.1456991089
0.1539144888
0.1629357518
0.1727845049
0.1834700876
0.1949895726
0.2073277650
0.2204572030
0.2343381572
0.2489186313
0.2641343616
0.2799090075
0.2962291234
0.3129861662
0.3299800400
0.3470170154
0.3639101894
0.3804795149
0.3965518015
0.4119607145
0.4265467760
0.4401573638
0.4526467122
0.4638759118
0.4737129133
0.4820327184
0.4887174599
0.4936561479
0.4967446485
0.4978856841
0.4969186816
0.4936119998
0.4881293975
0.4806630153
0.4713994884
0.4605199465
0.4482000139
0.4346098092
0.4199139952
0.4042738643
0.3878481098
0.3707901276
0.3532478082
0.3353635366
0.3172741924
0.2991111496
0.2810002768
0.2630619373
0.2454109886
0.2281567830
0.2114031674
0.1952484828
0.1797855653
0.1651017452
0.1512788473
0.1383931910
0.1265155905
0.1156976544
0.1059064386
0.0970815113
0.0891646416
0.0820997828
0.0758330733
0.0703127853
0.0654865350
0.0612998231
0.0576999772
0.0546365091
0.0520611157
0.0499276780
0.0481922622
0.0468131186
0.0457506824
0.0449675734
0.0444285954
0.0441006163
0.0439524228
0.0439549506
0.0440813202
0.0443068365
0.0446089893
0.0449674527
0.0453640858
0.0457829319
0.0462102193
0.0466343608
0.0470459536
0.0474377800
0.0478048325
0.0481462733
0.0484667936
0.0487735907
0.0490805513
0.0493963857
0.0497023442
0.0499837191
0.0502315363
0.0504425550
0.0506192679
0.0507699010
0.0509084138
0.0510544992
0.0512335837
0.0514768268
0.0518211220
0.0523090956
0.0529891078
0.0539152520
0.0551473551
0.0567509773
0.0587974117
0.0612970321
0.0643763423
0.0682553845
0.0731163575
0.0791033559
0.0863228659
0.0948438266
0.1046976299
0.1158781205
0.1283415961
0.1420068070
0.1567549568
0.1724297016
0.1888371506
0.2058128257
0.2230862860
0.2400198936
0.2560291431
0.2706031397
0.2833045997
0.2937698501
0.3017088289
0.3069050848
0.3092157777
0.3085716780
0.3049771672
0.2985102376
0.2893224837
0.2776224312
0.2636506481
0.2479626340
0.2311203729
0.2136296076
0.1959398404
0.1784443326
0.1614801049
0.1453279372
0.1302123685
0.1163016971
0.1037079806
0.0924870358
0.0826384384
0.0741055238
0.0667774398
0.0607312079
0.0554235097
0.0499341221
0.0433670066
0.0348503094
0.0235363613
0.0086016780
-0.0107530405
-0.0353188773
-0.0643998385
-0.0920275434
-0.1114283122
-0.1160649663
-0.0996368285
-0.0560797231
0.0204340242
0.1361132791
0.2916528286
0.4719866125
0.6592992639
0.8343105887
0.9762752605
1.0629830557
1.0708690970
0.9911778852
0.8321984935
0.6293238566
0.4208344172
0.2318900038
0.0809796434
-0.0237954843
-0.0833398094
-0.1022775342
-0.0886127590
-0.0537317061
-0.0113689069
0.0295291565
0.0640045534
0.0894995044
0.1058781523
0.1154265620
0.1216757934
0.1259506425
0.1292725914
0.1324205329
0.1359194368
0.1400403501
0.1448003965
0.1501376485
0.1561892654
0.1630175336
0.1706720336
0.1791904644
0.1885986434
0.1989105065
0.2101281083
0.2222416218
0.2352377061
0.2492412712
0.2641513005
0.2797710326
0.2959066721
0.3123667176
0.3289619612
0.3455054888
0.3618126801
0.3777012082
0.3929910402
0.4075044368
0.4210659523
0.4335024864
0.4446437400
0.4543219978
0.4623718415
0.4686301465
0.4729360819
0.4751311105
0.4750564150
0.4724856953
0.4675059628
0.4603375079
0.4511961465
0.4402932194
0.4278355930
0.4140252556
0.3990583808
0.3831263892
0.3664162267
0.3491103642
0.3313867983
0.3134190503
0.2953761672
0.2774227211
0.2597188093
0.2424200544
0.2256776043
0.2096381320
0.1944438359
0.1802324396
0.1671362529
0.1551996841
0.1443624080
0.1345660702
0.1257531868
0.1178671442
0.1108521990
0.1046534783
0.0992169795
0.0944895704
0.0904189106
0.0869532360
0.0840415842
0.0816338630
0.0796808505
0.0781341952
0.0769464160
0.0760709021
0.0754619129
0.0750745784
0.0748648988
0.0747897051
0.0748069577
0.0749142864
0.0751088739
0.0753748839
0.0756980144
0.0760654974
0.0764660988
0.0768901187
0.0773293910
0.0777772838
0.0782286991
0.0786800729
0.0791293755
0.0795764362
0.0800239936
0.0804766836
0.0809406761
0.0814236750
0.0819349182
0.0824851776
0.0830867592
0.0837506802
0.0844629766
0.0852916059
0.0863325603
0.0876851936
0.0894522217
0.0917397218
0.0946571332
0.0983172566
0.1028362548
0.1083336520
0.1149323344
0.1227585498
0.1319419078
0.1426153796
0.1549640039
0.1691880841
0.1848671733
0.2015122650
0.2186465821
0.2358060626
0.2525393599
0.2684078424
0.2829855940
0.2958594140
0.3066288166
0.3149060316
0.3203160039
0.3224964110
0.3210983816
0.3157913635
0.3067991904
0.2948561362
0.2806544321
0.2648283967
0.2479544351
0.2305510397
0.2130787896
0.1959403510
0.1794804771
0.1639860077
0.1496858699
0.1367512168
0.1252960369
0.1153766566
0.1070944495
0.1013368066
0.0965947058
0.0910261757
0.0832207627
0.0721995312
0.0574150629
0.0387514575
0.0165243323
-0.0085191776
-0.0352872681
-0.0605614641
-0.0698597690
-0.0501709017
0.0066295399
0.1037790785
0.2396283576
0.4076411420
0.5963943172
0.7845734007
0.9304404569
1.0015981261
0.9834124706
0.8790144507
0.7087992518
0.5041599950
0.2981421308
0.1156456079
-0.0276090640
-0.1250808148
-0.1756743238
-0.1854597597
-0.1680035760
-0.1347703658
-0.0950248024
-0.0558321700
-0.0220574813
0.0036346496
0.0208022171
0.0319897888
0.0394090573
0.0443483257
0.0478958407
0.0509397927
0.0541683159
0.0580694878
0.0629313298
0.0688411721
0.0756819055
0.0831422754
0.0912626258
0.1002559847
0.1101685353
0.1210282055
0.1328446674
0.1456093376
0.1592953770
0.1738576911
0.1892329297
0.2053394871
0.2220775019
0.2393288573
0.2569876570
0.2749745815
0.2930327177
0.3109021002
0.3283371108
0.3451064791
0.3609932818
0.3757949428
0.3893232337
0.4014042733
0.4118790583
0.4206070982
0.4274642167
0.4323405966
0.4351407683
0.4357836090
0.4341729077
0.4300026198
0.4234291658
0.4147262050
0.4041560633
0.3919697334
0.3784070903
0.3636974031
0.3480587607
0.3316979188
0.3148103000
0.2975799931
0.2801797541
0.2627710052
0.2455038358
0.2285170015
0.2119379248
0.1958826950
0.1804560678
0.1657512932
0.1518487419
0.1388166356
0.1267118552
0.1155799487
0.1054551303
0.0963603040
0.0882832777
0.0811540808
0.0748987653
0.0694465484
0.0647298121
0.0606841038
0.0572481357
0.0543637853
0.0519760953
0.0500332731
0.0484866917
0.0472908888
0.0464035674
0.0457855955
0.0454010062
0.0452169978
0.0452039337
0.0453353422
0.0455878535
0.0459406098
0.0463755350
0.0468777127
0.0474353919
0.0480415068
0.0487189010
0.0494573365
0.0502336151
0.0510284923
0.0518266769
0.0526168312
0.0533915145
0.0541469265
0.0548831131
0.0556040737
0.0563177608
0.0570360807
0.0577748928
0.0585540102
0.0593971993
0.0603321801
0.0613906258
0.0626081633
0.0640243729
0.0656828844
0.0676324248
0.0698869482
0.0725166612
0.0757709290
0.0798699769
0.0849975098
0.0913007119
0.0988902468
0.1078402577
0.1181883670
0.1299356768
0.1430467684
0.1574497025
0.1730360196
0.1896611106
0.2072784431
0.2253675011
0.2431648656
0.2599949026
0.2752697631
0.2884893832
0.2992414837
0.3072015708
0.3121329355
0.3138866242
0.3124010643
0.3077021729
0.2999036457
0.2891952324
0.2758539070
0.2605649848
0.2440226009
0.2268439847
0.2095694601
0.1926624452
0.1765094528
0.1614200796
0.1476269197
0.1352856086
0.1244748758
0.1151965451
0.1073755349
0.1008598579
0.0955006228
0.0910041901
0.0860467192
0.0793230327
0.0696714016
0.0560735444
0.0376545768
0.0136218099
-0.0147673403
-0.0398458836
-0.0533482527
-0.0474453095
-0.0147443456
0.0517109178
0.1584997307
0.3107896379
0.4931723568
0.6825267596
0.8545401357
0.9837081919
1.0433350523
1.0094723303
0.8946870661
0.7240097241
0.5212864738
0.3102202592
0.1143707984
-0.0435540756
-0.1572593696
-0.2304243746
-0.2668755415
-0.2717616354
-0.2515519517
-0.2140365065
-0.1683276682
-0.1247030078
-0.0888155014
-0.0605649914
-0.0394516892
-0.0246341202
-0.0149291242
-0.0088118550
-0.0044157805
-0.0002829586
0.0037493793
0.0078925290
0.0123259210
0.0171968955
0.0226207030
0.0286805039
0.0354273687
0.0428802777
0.0510329730
0.0599214676
0.0695975329
0.0800975756
0.0914433154
0.1036399438
0.1166761284
0.1305258507
0.1451484889
0.1604888187
0.1764770123
0.1930286393
0.2100446660
0.2274114560
0.2450007697
0.2626697646
0.2802609951
0.2976024127
0.3145073660
0.3308166485
0.3464281730
0.3611221099
0.3746931679
0.3869592466
0.3977614366
0.4069640198
0.4144544690
0.4201434478
0.4239648113
0.4258756581
0.4258577532
0.4239176865
0.4200853237
0.4144137216
0.4069791282
0.3978809823
0.3872363705
0.3750893627
0.3616136253
0.3470302551
0.3315494834
0.3153706689
0.2986820087
0.2816604511
0.2644720540
0.2472720098
0.2302046457
0.2134034237
0.1969909404
0.1810789272
0.1657682502
0.1511489103
0.1373000432
0.1242899190
0.1121758915
0.1010112991
0.0908670798
0.0817068619
0.0734764831
0.0661229160
0.0595942684
0.0538397829
0.0488098370
0.0444559433
0.0407307495
0.0375880380
0.0349827263
0.0328708670
0.0312096475
0.0299573903
0.0290735528
0.0285187273
0.0282546413
0.0282441571
0.0284512720
0.0288411183
0.0293799634
0.0300352095
0.0307753937
0.0315702309
0.0323924295
0.0332183736
0.0340426304
0.0348942101
0.0357606495
0.0366284668
0.0374860758
0.0383237857
0.0391338016
0.0399102238
0.0406490487
0.0413481691
0.0420075420
0.0426293582
0.0432177446
0.0437787239
0.0443202143
0.0448520294
0.0453858787
0.0459353673
0.0465159957
0.0471451601
0.0478421524
0.0486281599
0.0495262569
0.0505609050
0.0517576895
0.0531439170
0.0546707294
0.0564204785
0.0585841473
0.0613327669
0.0648174156
0.0691692196
0.0744993528
0.0808990364
0.0884395396
0.0971721791
0.1071283192
0.1183193718
0.1307367965
0.1443521007
0.1591168392
0.1749626145
0.1918630445
0.2097691429
0.2280484541
0.2460724359
0.2632796952
0.2791759790
0.2933334609
0.3053902406
0.3150514486
0.3220893650
0.3263434190
0.3277201893
0.3261934039
0.3218039402
0.3146598247
0.3049362337
0.2928751795
0.2787655042
0.2631180907
0.2464897943
0.2293788887
0.2122251016
0.1954096140
0.1792550606
0.1640255298
0.1499265636
0.1371051574
0.1256497605
0.1155902757
0.1068980595
0.0994859260
0.0932086137
0.0879827358
0.0832990250
0.0783071346
0.0721126927
0.0637773026
0.0523185425
0.0367099656
0.0158568410
-0.0106434834
-0.0385208856
-0.0621782897
-0.0757595217
-0.0731493096
-0.0479732829
0.0064020269
0.0968232205
0.2262485453
0.3886465837
0.5727450580
0.7624870792
0.9370311472
1.0707511509
1.1335633537
1.1100325017
1.0129349011
0.8592947236
0.6680832772
0.4602189208
0.2585670640
0.0868522576
-0.0458579231
-0.1389862770
-0.1935672273
-0.2130189778
-0.2031435138
-0.1721266019
-0.1304489863
-0.0870404108
-0.0466087978
-0.0123029216
0.0142000351
0.0326944804
0.0444464139
0.0521700258
0.0579954051
0.0625157840
0.0663727648
0.0700776623
0.0740115020
0.0784244431
0.0834349917
0.0890311697
0.0951353305
0.1018516187
0.1092412345
0.1173480082
0.1262062464
0.1358407319
0.1462667243
0.1574899593
0.1695066491
0.1823034824
0.1958576240
0.2101367155
0.2250988746
0.2407533090
0.2570826315
0.2739189072
0.2910953253
0.3084485338
0.3258186390
0.3430492061
0.3599872588
0.3764832802
0.3923916479
0.4075713507
0.4218850242
0.4351987626
0.4473821188
0.4583081042
0.4678531890
0.4758973017
0.4823238299
0.4870196193
0.4898749745
0.4907719700
0.4894337765
0.4859167845
0.4804001391
0.4730585295
0.4640621888
0.4535768945
0.4417639680
0.4287802747
0.4147782244
0.3999057707
0.3843064113
0.3681191881
0.3514786869
0.3345148314
0.3173524773
0.3001119110
0.2829089631
0.2658550085
0.2490569659
0.2326172981
0.2166340123
0.2012006592
0.1864063343
0.1723356765
0.1590688694
0.1466816401
0.1352452602
0.1248162487
0.1153641707
0.1068279577
0.0991493786
0.0922721336
0.0861418543
0.0807061039
0.0759143768
0.0717180990
0.0680706277
0.0649272517
0.0622451551
0.0599833324
0.0581026847
0.0565660443
0.0553381749
0.0543857717
0.0536774611
0.0531838014
0.0528772817
0.0527323231
0.0527252776
0.0528344291
0.0530399892
0.0533240493
0.0536705902
0.0540655229
0.0544966898
0.0549538646
0.0554287527
0.0559149907
0.0564081577
0.0569315157
0.0574922008
0.0580690044
0.0586442066
0.0592037692
0.0597378716
0.0602403530
0.0607085413
0.0611432529
0.0615487927
0.0619329542
0.0623070194
0.0626857588
0.0630874314
0.0635337849
0.0640500553
0.0646649674
0.0654107343
0.0663230577
0.0674411278
0.0688076236
0.0704687122
0.0724740496
0.0748219879
0.0775995581
0.0810181980
0.0852595095
0.0904744748
0.0967834575
0.1042760685
0.1130107338
0.1230151102
0.1342862350
0.1467905267
0.1604637847
0.1752111892
0.1909073013
0.2073960630
0.2245403655
0.2421750280
0.2596984747
0.2765301799
0.2921574682
0.3061355382
0.3180873457
0.3277035950
0.3347427397
0.3390309820
0.3404622734
0.3389983140
0.3346685530
0.3275701886
0.3178681678
0.3057907914
0.2915712450
0.2757070292
0.2587385721
0.2411526684
0.2233824791
0.2058075317
0.1887537202
0.1724933050
0.1572449131
0.1431735378
0.1303905387
0.1189536423
0.1088669411
0.1000808944
0.0924923277
0.0859663725
0.0804304320
0.0751599738
0.0692702893
0.0618755822
0.0520889681
0.0390224751
0.0217870433
-0.0005123268
-0.0278624349
-0.0561343367
-0.0799469330
-0.0935917920
-0.0910340251
-0.0659122882
-0.0115387810
0.0782083550
0.2046240631
0.3637943842
0.5463217969
0.7373002996
0.9163154104
1.0574441654
1.1281861366
1.1135999800
1.0333832292
0.9075487134
0.7542983657
0.5900232225
0.4293034239
0.2864607924
0.1852201734
0.1283009180
0.1106206697
0.1243000637
0.1586622615
0.2006865188
0.2411020614
0.2752629194
0.3007219857
0.3172288430
0.3267297639
0.3326200019
0.3364035545
0.3391312789
0.3416149016
0.3443937959
0.3477349820
0.3516379412
0.3561183458
0.3612905342
0.3672192844
0.3739576859
0.3815471396
0.3900173577
0.3993863638
0.4096604931
0.4208343919
0.4328910180
0.4458016406
0.4596642694
0.4744600948
0.4899634154
0.5059548409
0.5222213425
0.5385562536
0.5547592691
0.5706364461
0.5860002032
0.6006693210
0.6144689419
0.6272305703
0.6387920722
0.6489977912
0.6576987858
0.6647525434
0.6700229135
0.6733801072
0.6747006977
0.6738676198
0.6707653636
0.6652660960
0.6575189688
0.6477443505
0.6361573926
0.6229681920
0.6083829106
0.5926031014
0.5758251042
0.5582400418
0.5400338205
0.5213871297
0.5024754418
0.4834690126
0.4645328810
0.4458268690
0.4275055819
0.4097184082
0.3926095195
0.3763178705
0.3609771993
0.3467153527
0.3335834385
0.3215298224
0.3104974051
0.3004303059
0.2912738632
0.2829746340
0.2754803940
0.2687401378
0.2627039349
0.2573217752
0.2525441799
0.2483228825
0.2446108355
0.2413622100
0.2385323960
0.2360780021
0.2339568560
0.2321280039
0.2305517109
0.2291894610
0.2280039567
0.2269590610
0.2260195628
0.2251513790
0.2243229189
0.2235468823
0.2228268411
0.2221503634
0.2215066239
0.2208864043
0.2202820929
0.2196876848
0.2190987818
0.2185126293
0.2179284596
0.2173473361
0.2167719321
0.2162065277
0.2156570095
0.2151308710
0.2146372125
0.2141867410
0.2137917701
0.2134662205
0.2131926597
0.2129597763
0.2128901676
0.2131084039
0.2137353522
0.2148881756
0.2166803337
0.2192215827
0.2226179750
0.2269718595
0.2323818816
0.2389429830
0.2467464018
0.2558796725
0.2664266989
0.2784685483
0.2922451995
0.3077216987
0.3241962930
0.3410078994
0.3575523669
0.3732824762
0.3877079399
0.4003954026
0.4109684405
0.4191075620
0.4245502071
0.4270907653
0.4265807037
0.4229284937
0.4160995391
0.4061161756
0.3931401882
0.3777987875
0.3608090186
0.3428159518
0.3243926538
0.3060401879
0.2881876142
0.2711918581
0.2553360201
0.2408298647
0.2278111225
0.2163455211
0.2064267843
0.1979970754
0.1909771377
0.1848090789
0.1787313075
0.1718472448
0.1631253248
0.1513989947
0.1353667141
0.1135989477
0.0863918441
0.0585276718
0.0363768946
0.0274392880
0.0403439397
0.0841807961
0.1655226404
0.2894504549
0.4522871874
0.6407147521
0.8317741071
0.9941513669
1.0940787543
1.1090388523
1.0338305277
0.8812689538
0.6802981665
0.4698614292
0.2858331418
0.1435880723
0.0506970004
0.0067167017
0.0031737540
0.0262139633
0.0637037826
0.1053561013
0.1427302058
0.1698046817
0.1871323727
0.1976253138
0.2036987798
0.2072883520
0.2098499170
0.2123501353
0.2151899651
0.2185128694
0.2224387206
0.2270693092
0.2324882462
0.2387609586
0.2459346896
0.2540792242
0.2633087814
0.2735960532
0.2848913451
0.2971305108
0.3102349526
0.3241116212
0.3386530162
0.3537371853
0.3692277250
0.3849737803
0.4008100447
0.4165567603
0.4320197175
0.4469902556
0.4612452621
0.4745471732
0.4866439736
0.4972691966
0.5061418648
0.5129651844
0.5174220921
0.5194262527
0.5190619719
0.5164249045
0.5116214016
0.5047685108
0.4959939765
0.4854362394
0.4732444370
0.4595784030
0.4446086679
0.4285164516
0.4114934381
0.3937417335
0.3754741239
0.3569140925
0.3382958185
0.3198641780
0.3018747437
0.2845937846
0.2682966295
0.2530612987
0.2388350079
0.2256205951
0.2134165476
0.2022173427
0.1920102626
0.1827752190
0.1744847528
0.1671040342
0.1605908630
0.1548956680
0.1499615076
0.1457240695
0.1421116706
0.1390452573
0.1364384051
0.1341975583
0.1322781569
0.1306660684
0.1293270578
0.1282299270
0.1273465143
0.1266516946
0.1261233792
0.1257425163
0.1254930902
0.1253621222
0.1253395477
0.1254140889
0.1255722528
0.1258032577
0.1260993586
0.1264558468
0.1268759534
0.1273640215
0.1278938723
0.1284445416
0.1290030548
0.1295644268
0.1301316617
0.1307157564
0.1313359733
0.1320200718
0.1328038550
0.1337311155
0.1348536354
0.1362311863
0.1379315292
0.1399651785
0.1424570062
0.1456886312
0.1498957954
0.1552670963
0.1619475402
0.1700398987
0.1796000787
0.1906367599
0.2031113953
0.2169382109
0.2319842055
0.2481058912
0.2651186669
0.2821956146
0.2985111527
0.3133477883
0.3260961164
0.3362548204
0.3434306720
0.3473385313
0.3478013464
0.3447501537
0.3382240782
0.3283703329
0.3154060642
0.2999830274
0.2829374122
0.2650120810
0.2468563929
0.2290239894
0.2119716068
0.1960622268
0.1815653670
0.1686570809
0.1574199575
0.1478431219
0.1398222349
0.1332232947
0.1276072939
0.1219212350
0.1149621923
0.1053966339
0.0917602122
0.0724573639
0.0466454754
0.0187843507
-0.0038937214
-0.0129530656
0.0012449734
0.0494088413
0.1391420268
0.2738130576
0.4468331014
0.6396544023
0.8217716504
0.9504074860
0.9899001930
0.9392743837
0.8099447197
0.6232435757
0.4104210395
0.2118738622
0.0510234553
-0.0668054852
-0.1391644509
-0.1685502971
-0.1624052434
-0.1327592475
-0.0915481517
-0.0483546965
-0.0100256916
0.0195003376
0.0391931499
0.0509307888
0.0586664269
0.0639308539
0.0677604988
0.0710383266
0.0744154659
0.0783104874
0.0829087509
0.0881636325
0.0939873676
0.1005388736
0.1078855154
0.1160792517
0.1251579150
0.1351452119
0.1460507230
0.1578699027
0.1705840797
0.1841604564
0.1985522238
0.2137494017
0.2297709473
0.2464008475
0.2634136925
0.2805906553
0.2977194911
0.3145945381
0.3310167166
0.3467935299
0.3617390636
0.3756739874
0.3884258010
0.3998291102
0.4097251702
0.4179618189
0.4243934766
0.4288811461
0.4312924130
0.4315014429
0.4292823905
0.4246475546
0.4178251080
0.4090373493
0.3985007026
0.3864257182
0.3730170718
0.3584735652
0.3429881260
0.3267478073
0.3099337884
0.2927213741
0.2752799952
0.2577732082
0.2403586953
0.2231882648
0.2064078501
0.1901573587
0.1745704655
0.1597749188
0.1458925928
0.1330394877
0.1213162999
0.1107103985
0.1011565318
0.0925926711
0.0849581967
0.0781938987
0.0722419764
0.0670460383
0.0625510677
0.0587031808
0.0554497718
0.0527396438
0.0505230091
0.0487514894
0.0473781160
0.0463573292
0.0456449790
0.0451983248
0.0449760351
0.0449381886
0.0450464903
0.0452646322
0.0455578235
0.0459234696
0.0463676320
0.0468745289
0.0474302925
0.0480229692
0.0486425192
0.0492808170
0.0499316508
0.0505907232
0.0512556504
0.0519259631
0.0526031056
0.0532904365
0.0539932284
0.0547186677
0.0554758552
0.0562758053
0.0571314469
0.0580576225
0.0590710889
0.0601905168
0.0614364907
0.0627922159
0.0642640299
0.0660181758
0.0682153321
0.0710044058
0.0745225327
0.0788950770
0.0842356315
0.0906460178
0.0982162859
0.1070247146
0.1171378110
0.1286103113
0.1414851762
0.1557935464
0.1716485521
0.1890480324
0.2072736418
0.2256213924
0.2434540558
0.2602011638
0.2753590079
0.2884906396
0.2992258703
0.3072612712
0.3123606913
0.3143564779
0.3131481030
0.3087017984
0.3010505557
0.2902999322
0.2768761073
0.2615151353
0.2448999453
0.2276390248
0.2102664202
0.1932417370
0.1769501391
0.1617023494
0.1477346496
0.1352088802
0.1242124406
0.1147582888
0.1067849417
0.1003322703
0.0950712462
0.0900044034
0.0841212643
0.0764081398
0.0658481293
0.0514206411
0.0321000563
0.0068836450
-0.0216177320
-0.0451712050
-0.0554418603
-0.0444757927
-0.0047001059
0.0710770880
0.1901670977
0.3518340665
0.5372366860
0.7238378811
0.8866724350
0.9983471447
1.0290475067
0.9683767073
0.8370062782
0.6539503415
0.4413228862
0.2243377685
0.0313087116
-0.1182864869
-0.2285097482
-0.2995359332
-0.3337503792
-0.3358912517
-0.3130510883
-0.2746773606
-0.2312706828
-0.1888261863
-0.1508678444
-0.1196693396
-0.0962537759
-0.0803936787
-0.0706109952
-0.0641770938
-0.0587419280
-0.0541269392
-0.0498975125
-0.0456944121
-0.0412339865
-0.0363081686
-0.0307844756
-0.0246060089
-0.0177914543
-0.0103894801
-0.0023173764
0.0064868172
0.0160690723
0.0264623065
0.0376839458
0.0497380762
0.0626163676
0.0762980748
0.0907500368
0.1059266774
0.1217700047
0.1382096115
0.1551626750
0.1725339569
0.1902158036
0.2081204202
0.2262218730
0.2443047486
0.2621450207
0.2795329736
0.2962732106
0.3121846538
0.3271005445
0.3408684431
0.3533502288
0.3644221000
0.3739745740
0.3819124872
0.3881557268
0.3926424796
0.3953265984
0.3961762559
0.3951739439
0.3923164733
0.3876149740
0.3810681814
0.3726564084
0.3625626794
0.3509847024
0.3381134397
0.3241331076
0.3092211766
0.2935483713
0.2772786705
0.2605693071
0.2435707683
0.2264267952
0.2092743832
0.1922437819
0.1754584949
0.1590352800
0.1430841492
0.1277083686
0.1130036192
0.0990536730
0.0859335936
0.0737116950
0.0624529954
0.0521803077
0.0428495804
0.0344138197
0.0268264876
0.0200415023
0.0140132380
0.0086965248
0.0040466490
0.0000193524
-0.0034292368
-0.0063427288
-0.0087643112
-0.0107367154
-0.0123022170
-0.0135026356
-0.0143793347
-0.0149732218
-0.0153247485
-0.0154739103
-0.0154602468
-0.0153218277
-0.0150891921
-0.0147894093
-0.0144490813
-0.0140932538
-0.0137096009
-0.0132910731
-0.0128435009
-0.0123716308
-0.0118791250
-0.0113685620
-0.0108414362
-0.0102981579
-0.0097380536
-0.0091593656
-0.0085592523
-0.0079337879
-0.0072779630
-0.0065856836
-0.0058497723
-0.0050619673
-0.0042129229
-0.0032922093
-0.0022883130
-0.0011886361
0.0000195386
0.0013423577
0.0027834035
0.0043473195
0.0060398337
0.0078489687
0.0096878223
0.0116499498
0.0138555647
0.0164174038
0.0194407276
0.0230233197
0.0272554871
0.0322200604
0.0379924776
0.0446410807
0.0522268422
0.0608032582
0.0704163478
0.0811046540
0.0928992427
0.1058237034
0.1198941490
0.1351192157
0.1515069521
0.1689379818
0.1869671726
0.2051390958
0.2230241894
0.2402187320
0.2563448421
0.2710504786
0.2840094405
0.2949213671
0.3035117378
0.3095318724
0.3127589308
0.3129959130
0.3100664331
0.3039709878
0.2950987984
0.2838698949
0.2706913556
0.2559573068
0.2400489226
0.2233344255
0.2061690858
0.1888952221
0.1718422009
0.1553264368
0.1396511603
0.1251042349
0.1119658661
0.1004419967
0.0904393332
0.0817759664
0.0742169200
0.0674741513
0.0612065506
0.0550199413
0.0484670803
0.0410476575
0.0322082961
0.0213425525
0.0077908712
-0.0091597086
-0.0302753679
-0.0563020777
-0.0840766320
-0.1051862109
-0.1118978228
-0.0976540305
-0.0570729508
0.0140517452
0.1187508324
0.2588795830
0.4375867670
0.6368457032
0.8272231754
0.9847371601
1.0908823948
1.1326303780
1.1024293692
0.9982572872
0.8322598162
0.6328234419
0.4247865706
0.2278141806
0.0563978216
-0.0801443848
-0.1776677457
-0.2368178330
-0.2580099641
-0.2498140231
-0.2221386387
-0.1833686843
-0.1403652783
-0.0984657838
-0.0614838089
-0.0317092063
-0.0099080914
0.0046769288
0.0143268213
0.0219066770
0.0278234913
0.0326135974
0.0367804448
0.0407452023
0.0448467581
0.0493417200
0.0544044146
0.0601268884
0.0665189069
0.0735079551
0.0809969616
0.0891074853
0.0979002498
0.1074114744
0.1176663522
0.1286790504
0.1404527103
0.1529794469
0.1662403494
0.1802054809
0.1948338784
0.2100736081
0.2258626115
0.2421285404
0.2587880417
0.2757560279
0.2930075049
0.3103853378
0.3277041658
0.3447873957
0.3614672019
0.3775845268
0.3929890806
0.4075393409
0.4211025533
0.4335547313
0.4447806558
0.4546738758
0.4631367076
0.4700802359
0.4754243124
0.4790975573
0.4810373579
0.4811898697
0.4794599208
0.4755850833
0.4697040544
0.4620127370
0.4526987460
0.4419428078
0.4299188133
0.4167938170
0.4027280380
0.3878748592
0.3723808278
0.3563856549
0.3400222160
0.3234165505
0.3066878620
0.2899485182
0.2733040430
0.2568529086
0.2406865170
0.2248894227
0.2095393442
0.1947071641
0.1804569292
0.1668458503
0.1539243026
0.1417358251
0.1303171210
0.1196981115
0.1099031355
0.1009509574
0.0928518170
0.0855779567
0.0790750411
0.0732899871
0.0681716586
0.0636708664
0.0597403684
0.0563348695
0.0534110214
0.0509274232
0.0488446205
0.0471251062
0.0457333202
0.0446356492
0.0438004270
0.0431979345
0.0428003994
0.0425819965
0.0425188475
0.0425890213
0.0427725336
0.0430513471
0.0434093480
0.0438317020
0.0443047758
0.0448168440
0.0453581279
0.0459207959
0.0464989635
0.0470965863
0.0477272541
0.0483752900
0.0490253983
0.0496646175
0.0502823210
0.0508702169
0.0514223511
0.0519353561
0.0524086207
0.0528439083
0.0532453174
0.0536192808
0.0539745662
0.0543222757
0.0546758465
0.0550510500
0.0554659925
0.0559411402
0.0565001810
0.0571702387
0.0579808403
0.0589638474
0.0601534565
0.0615788666
0.0632384794
0.0652713550
0.0678335203
0.0710641309
0.0750854713
0.0800029545
0.0859051224
0.0928636457
0.1009333237
0.1101520846
0.1205409853
0.1321042115
0.1448290774
0.1586860263
0.1736286300
0.1896735020
0.2066333508
0.2240173090
0.2413648675
0.2582493388
0.2742775357
0.2890908536
0.3023653558
0.3138117735
0.3231755056
0.3302366189
0.3348098479
0.3367445953
0.3359249313
0.3322695939
0.3257276591
0.3163799908
0.3046610044
0.2910312532
0.2759225141
0.2597382938
0.2428539282
0.2256165821
0.2083452493
0.1913307527
0.1748357440
0.1590947041
0.1443139428
0.1306715978
0.1183175700
0.1074970696
0.0989084323
0.0919872514
0.0860008633
0.0802864439
0.0742510081
0.0673714101
0.0591943433
0.0493363402
0.0374837725
0.0233928512
0.0068896266
-0.0121300122
-0.0337003365
-0.0577857786
-0.0838057089
-0.1053021871
-0.1131876375
-0.1001045039
-0.0604758601
0.0094945909
0.1118225161
0.2467429533
0.4127122876
0.6029184415
0.7961652169
0.9695376795
1.1020289285
1.1745400958
1.1712311675
1.0920877025
0.9481910348
0.7583197042
0.5492811378
0.3496914430
0.1785820024
0.0474293999
-0.0395565026
-0.0834466949
-0.0905461992
-0.0721600927
-0.0382418175
0.0027207469
0.0437052838
0.0791550391
0.1052464818
0.1226540122
0.1338640503
0.1409307798
0.1455119308
0.1488677378
0.1518628869
0.1549667618
0.1583630695
0.1622170353
0.1666163522
0.1716369395
0.1773440429
0.1837922335
0.1910254082
0.1990767901
0.2079689276
0.2177136953
0.2283122935
0.2397552481
0.2520224112
0.2650829603
0.2788953991
0.2934081287
0.3086489296
0.3245142573
0.3407948238
0.3572873135
0.3737943888
0.3901257458
0.4060993112
0.4215392731
0.4362757914
0.4501449982
0.4629889978
0.4746558662
0.4849996517
0.4938803746
0.5011640272
0.5067225738
0.5104339508
0.5121820666
0.5118527653
0.5091150717
0.5039845703
0.4967009465
0.4874954081
0.4765906865
0.4642010368
0.4505322376
0.4357815910
0.4201379229
0.4037815825
0.3868844390
0.3696088576
0.3521062797
0.3345193139
0.3169820927
0.2996202718
0.2825510305
0.2658830720
0.2497166227
0.2341434326
0.2192467756
0.2051014486
0.1917737727
0.1793215920
0.1677942745
0.1572327117
0.1476687936
0.1390887628
0.1314221123
0.1245975955
0.1185467251
0.1132037724
0.1085057676
0.1043924999
0.1008065174
0.0976931287
0.0950013869
0.0926857344
0.0907038071
0.0890159996
0.0875854652
0.0863781164
0.0853626243
0.0845104193
0.0837956902
0.0831953850
0.0826892105
0.0822596325
0.0818918755
0.0815739229
0.0812965364
0.0810534741
0.0808414141
0.0806603977
0.0805339893
0.0804581204
0.0804143449
0.0803881428
0.0803689201
0.0803500086
0.0803286653
0.0803052852
0.0802818250
0.0802637258
0.0802603550
0.0802850056
0.0803548967
0.0804911733
0.0807189062
0.0810670923
0.0815686542
0.0822604406
0.0831832261
0.0843817112
0.0859036882
0.0877443664
0.0900520794
0.0930403055
0.0968920584
0.1017598878
0.1077658791
0.1150016534
0.1235283675
0.1333767138
0.1445469208
0.1570087524
0.1707020210
0.1855378051
0.2014090432
0.2182721131
0.2355727552
0.2526614502
0.2689538718
0.2839308865
0.2971385539
0.3081881264
0.3167560491
0.3225839602
0.3254786908
0.3253122647
0.3220218951
0.3156098977
0.3061364165
0.2938361225
0.2793113223
0.2631614041
0.2459344769
0.2281273710
0.2101856376
0.1925035489
0.1754240983
0.1592386795
0.1441861877
0.1304539488
0.1181780100
0.1075567869
0.0999731684
0.0944532925
0.0894560328
0.0837175528
0.0762513052
0.0663480327
0.0535757677
0.0377798319
0.0190828370
-0.0021153158
-0.0251374357
-0.0490290421
-0.0726299622
-0.0931274502
-0.0960535716
-0.0683222052
-0.0022187545
0.1045998527
0.2491051645
0.4228972043
0.6122048002
0.7978866666
0.9536784378
1.0458567770
1.0532442218
0.9723169832
0.8172050993
0.6179268969
0.4098323346
0.2212440983
0.0703583802
-0.0343430888
-0.0881655589
-0.1014862781
-0.0873950316
-0.0569593042
-0.0192242939
0.0187871223
0.0520743920
0.0776592871
0.0945859043
0.1049075413
0.1114509872
0.1156185100
0.1185637715
0.1211918461
0.1241576381
0.1278672739
0.1324787045
0.1379017052
0.1438576507
0.1505080439
0.1579864877
0.1663438135
0.1756147412
0.1858178799
0.1969557272
0.2090146700
0.2219649838
0.2357608331
0.2503402712
0.2656639254
0.2816914236
0.2982073865
0.3149913587
0.3318275111
0.3485046404
0.3648161694
0.3805601467
0.3955392473
0.4095611739
0.4224404535
0.4339969861
0.4440552989
0.4524445445
0.4589985019
0.4635555760
0.4659587976
0.4659363962
0.4634382037
0.4586524926
0.4517662149
0.4429649854
0.4324330811
0.4203534423
0.4069077951
0.3922768402
0.3766399887
0.3601753145
0.3430595541
0.3254681064
0.3075750330
0.2895530580
0.2715735681
0.2538066126
0.2364205446
0.2195801619
0.2034480776
0.1881855658
0.1739525632
0.1608851696
0.1489564937
0.1381056920
0.1282768964
0.1194147722
0.1114645178
0.1043718649
0.0980830786
0.0925449572
0.0877048324
0.0835105691
0.0799105655
0.0768537530
0.0742895966
0.0721680943
0.0704397774
0.0690557107
0.0679674921
0.0671272528
0.0664876574
0.0660021577
0.0656265201
0.0653178067
0.0650674262
0.0648872904
0.0647639452
0.0646855224
0.0646417472
0.0646239382
0.0646250079
0.0646394617
0.0646633990
0.0646945125
0.0647320884
0.0647770065
0.0648315753
0.0648990255
0.0649840099
0.0650927749
0.0652331602
0.0654145993
0.0656481189
0.0659463394
0.0663234745
0.0667732869
0.0673035022
0.0680222663
0.0690417577
0.0704742741
0.0724322328
0.0750281713
0.0783747467
0.0825847359
0.0877710359
0.0940466633
0.1015247547
0.1103185664
0.1205414747
0.1323069757
0.1458408596
0.1611728943
0.1777313862
0.1949530731
0.2123051638
0.2292853383
0.2454217474
0.2602730130
0.2734282280
0.2845069562
0.2931592324
0.2990654242
0.3019351092
0.3015076615
0.2975529200
0.2899372989
0.2791125679
0.2657841635
0.2506050706
0.2341733485
0.2170321314
0.1996696278
0.1825191209
0.1659589685
0.1503126029
0.1358485310
0.1227804622
0.1112680403
0.1016051819
0.0941780325
0.0880265306
0.0821566791
0.0756731497
0.0677792826
0.0577770867
0.0450672396
0.0291492694
0.0096232790
-0.0138108243
-0.0414570089
-0.0688516174
-0.0819016004
-0.0688733464
-0.0218371861
0.0633326077
0.1869578204
0.3455562951
0.5317990436
0.7247759346
0.8841197791
0.9779804059
0.9869632300
0.9049244178
0.7501603166
0.5535410296
0.3440134550
0.1483599215
-0.0114524368
-0.1288397615
-0.2027380796
-0.2356448665
-0.2337523922
-0.2069501716
-0.1672916487
-0.1239012717
-0.0833345234
-0.0498700364
-0.0255095928
-0.0099781242
-0.0007237118
0.0059390175
0.0108820009
0.0148674083
0.0185418939
0.0223918376
0.0267433453
0.0317621930
0.0374532353
0.0437063645
0.0506163245
0.0582653126
0.0667044224
0.0759706723
0.0860870047
0.0970622869
0.1088913102
0.1215550319
0.1350237269
0.1492560984
0.1641968326
0.1797765398
0.1959670794
0.2127571127
0.2299161655
0.2472126757
0.2644258283
0.2813455548
0.2977725333
0.3135181888
0.3284046929
0.3422649639
0.3549426668
0.3662922132
0.3761787616
0.3844782170
0.3910772312
0.3958732026
0.3987742764
0.3996993444
0.3985780453
0.3952772040
0.3896680582
0.3819819761
0.3724592544
0.3613305994
0.3488171946
0.3351307002
0.3204732534
0.3050374681
0.2890064351
0.2725537222
0.2558433739
0.2390299116
0.2222583337
0.2056641153
0.1893732083
0.1735020521
0.1581577993
0.1434383151
0.1294319518
0.1162175384
0.1038643809
0.0924322621
0.0819714415
0.0725230407
0.0641000788
0.0566408634
0.0500736138
0.0443297969
0.0393436099
0.0350519604
0.0313944662
0.0283134558
0.0257539680
0.0236637521
0.0219932678
0.0206956853
0.0197268850
0.0190454580
0.0186127058
0.0183926402
0.0183519835
0.0184601685
0.0186893383
0.0190143465
0.0194127572
0.0198648449
0.0203535944
0.0208647012
0.0213865709
0.0219103198
0.0224298563
0.0229437751
0.0235183708
0.0241781097
0.0248800028
0.0255883389
0.0262746845
0.0269178842
0.0275040603
0.0280266131
0.0284862206
0.0288908388
0.0292557014
0.0296033201
0.0299634846
0.0303732616
0.0308769691
0.0315261614
0.0323796671
0.0335035930
0.0349713233
0.0368635205
0.0392681248
0.0422803540
0.0460027042
0.0505448344
0.0560204011
0.0625466570
0.0702479372
0.0792558548
0.0897005522
0.1016222744
0.1149807051
0.1296784254
0.1455609127
0.1624165413
0.1799765824
0.1979152039
0.2158494702
0.2333393430
0.2498876802
0.2649402368
0.2778856646
0.2881726228
0.2955339591
0.2997812428
0.3008158488
0.2986293618
0.2933035766
0.2850104984
0.2740124242
0.2606647788
0.2454168331
0.2288082965
0.2114690887
0.1940507868
0.1768851976
0.1603558640
0.1447959922
0.1304586326
0.1175166795
0.1060628712
0.0961097902
0.0875898628
0.0803553597
0.0741783953
0.0687619488
0.0641471409
0.0586215659
0.0502078074
0.0376401753
0.0203647063
-0.0014608364
-0.0269669633
-0.0546965868
-0.0788623519
-0.0891364457
-0.0768022346
-0.0350502210
0.0410221522
0.1544105013
0.3062343645
0.4920281603
0.6863722187
0.8606963530
0.9891181350
1.0484428946
