ECG
1.0277379007
0.9810129846
0.8598147859
0.6871126587
0.4874415739
0.2855450427
0.1051554239
-0.0409618523
-0.1480447795
-0.2148606268
-0.2436810046
-0.2402818649
-0.2139424120
-0.1753958181
-0.1326448316
-0.0918481781
-0.0571928294
-0.0308940034
-0.0131951641
-0.0023680218
0.0049716998
0.0102959794
0.0142584041
0.0175355702
0.0206571649
0.0240059663
0.0278184418
0.0321868495
0.0370572994
0.0423707057
0.0482609412
0.0547894377
0.0620070909
0.0699553127
0.0786660307
0.0881616883
0.0984552452
0.1095501768
0.1214404743
0.1341106452
0.1475357127
0.1616817629
0.1766371958
0.1923525175
0.2086344245
0.2252957793
0.2421556103
0.2590391121
0.2757776450
0.2922087355
0.3081760760
0.3235291292
0.3381215976
0.3518127712
0.3644681066
0.3759592260
0.3861639178
0.3949661363
0.4022560018
0.4079298006
0.4118899848
0.4140451727
0.4143101486
0.4126058626
0.4087719323
0.4028325553
0.3949992116
0.3854762139
0.3744606643
0.3621424549
0.3487042674
0.3343215731
0.3191626330
0.3033884981
0.2871530088
0.2706027953
0.2538774547
0.2371103932
0.2204281708
0.2039501375
0.1877884331
0.1720479871
0.1568265187
0.1422145367
0.1282953398
0.1151450162
0.1028324438
0.0914192904
0.0809600134
0.0714890023
0.0629686221
0.0553410145
0.0485501473
0.0425417800
0.0372634641
0.0326645426
0.0286961504
0.0253112139
0.0224644516
0.0201123735
0.0182132814
0.0167269151
0.0156122516
0.0148288996
0.0143382518
0.0141034924
0.0140895973
0.0142633344
0.0145932631
0.0150497347
0.0156048923
0.0162326705
0.0169087959
0.0176107867
0.0183233448
0.0190463720
0.0197693840
0.0204816878
0.0211732864
0.0218348789
0.0224578604
0.0230343220
0.0235570510
0.0240195307
0.0244159405
0.0247411557
0.0249916728
0.0251715285
0.0252885259
0.0253511786
0.0253686964
0.0253509851
0.0253086464
0.0252529784
0.0251959749
0.0251503260
0.0251294178
0.0251473323
0.0252188478
0.0253594385
0.0255564886
0.0257757547
0.0261184130
0.0266921398
0.0276018214
0.0289495533
0.0308346411
0.0333535999
0.0366001544
0.0406652391
0.0456369980
0.0515995729
0.0586244340
0.0667755666
0.0761141493
0.0866985701
0.0985844265
0.1118245260
0.1264697638
0.1426395118
0.1600119735
0.1780639235
0.1963036498
0.2142709542
0.2315371516
0.2477050705
0.2624090529
0.2753149542
0.2861201431
0.2945535021
0.3003754269
0.3033778267
0.3033841242
0.3002492556
0.2938569998
0.2844026170
0.2724470423
0.2585382779
0.2431877895
0.2268653123
0.2099987934
0.1929743917
0.1761364778
0.1597876343
0.1441886555
0.1295585478
0.1160745292
0.1038720295
0.0930446904
0.0836422486
0.0755522918
0.0686730384
0.0628379487
0.0577181842
0.0528226068
0.0474977796
0.0409279663
0.0321351315
0.0199789406
0.0031567598
-0.0194847736
-0.0459440680
-0.0718076970
-0.0918579414
-0.1000883766
-0.0897037715
-0.0531200897
0.0159360785
0.1214050886
0.2638066963
0.4365639471
0.6259854316
0.8112652859
0.9645489441
1.0591837315
1.0768203343
1.0113423403
0.8721375004
0.6839889911
0.4802719901
0.2893947948
0.1310276397
0.0156236474
-0.0538771352
-0.0798166275
-0.0742839611
-0.0484547209
-0.0117903346
0.0279592986
0.0647499760
0.0942430714
0.1140867963
0.1263624473
0.1337081156
0.1380787357
0.1409797026
0.1434668719
0.1461465597
0.1491755429
0.1525528574
0.1564848030
0.1610471291
0.1663094195
0.1723354876
0.1791833761
0.1869053572
0.1955479324
0.2051518333
0.2158114989
0.2275666842
0.2403654166
0.2541449820
0.2688221231
0.2842954159
0.3004531800
0.3171736931
0.3343251906
0.3517658660
0.3693438706
0.3868973135
0.4042542621
0.4212327413
0.4376407341
0.4532761814
0.4679269821
0.4813709929
0.4933760284
0.5036998613
0.5120902219
0.5182873367
0.5222185940
0.5239293059
0.5234751161
0.5209218280
0.5163454047
0.5098319692
0.5014783820
0.4914018729
0.4797385775
0.4666350737
0.4522480992
0.4367445516
0.4203014883
0.4031061263
0.3853558428
0.3672581743
0.3490308175
0.3309016288
0.3131086243
0.2958999799
0.2795303194
0.2640819631
0.2495443130
0.2359379847
0.2232779281
0.2115734273
0.2008281008
0.1910399011
0.1822011151
0.1742983641
0.1673126033
0.1612187742
0.1559788470
0.1515422592
0.1478525315
0.1448475192
0.1424594115
0.1406147321
0.1392343387
0.1382334235
0.1375215131
0.1370552129
0.1368306160
0.1368142438
0.1369745424
0.1372818834
0.1377085628
0.1382288019
0.1388187469
0.1394564688
0.1401219638
0.1407971530
0.1414658822
0.1421139224
0.1427289697
0.1433006447
0.1438206599
0.1442868845
0.1447035816
0.1450771533
0.1454162667
0.1457211831
0.1459864680
0.1462093817
0.1463899466
0.1465309471
0.1466379299
0.1467192035
0.1467858387
0.1468516683
0.1469332871
0.1470500520
0.1472240821
0.1474802583
0.1478462240
0.1483304914
0.1488955882
0.1496946875
0.1508956642
0.1526537207
0.1551113870
0.1583984696
0.1626304846
0.1679082382
0.1743196918
0.1819401342
0.1908321816
0.2010457780
0.2126181947
0.2255740307
0.2399276959
0.2556803787
0.2723669814
0.2894000040
0.3062291133
0.3223411431
0.3372600939
0.3505471331
0.3618005953
0.3706559815
0.3767859599
0.3799003654
0.3797461999
0.3761026495
0.3689819644
0.3589113496
0.3464534111
0.3321419708
0.3164820994
0.2999499828
0.2829929122
0.2660292841
0.2494486000
0.2336114670
0.2188495972
0.2054658084
0.1936128875
0.1831241704
0.1742131533
0.1669310969
0.1611112052
0.1563686247
0.1521004451
0.1474856987
0.1414853610
0.1328423502
0.1201783409
0.1021339364
0.0786408127
0.0520032901
0.0269210049
0.0104888805
0.0108406437
0.0376102987
0.0999961548
0.2020306385
0.3425266015
0.5150773201
0.7089401674
0.8899238437
1.0206756950
1.0770313802
1.0480270901
0.9358995474
0.7596835997
0.5565582799
0.3588349946
0.1894580702
0.0620047674
-0.0193091464
-0.0541454681
-0.0517493730
-0.0262966346
0.0106206022
0.0499938213
0.0853981355
0.1129923728
0.1315247846
0.1423365872
0.1488215683
0.1527074729
0.1549820788
0.1564997655
0.1579264532
0.1597396021
0.1622282131
0.1654928273
0.1694455262
0.1740029047
0.1793614107
0.1855983468
0.1927755787
0.2009419967
0.2101335169
0.2203730803
0.2316706534
0.2440232277
0.2574270800
0.2721238065
0.2880209294
0.3048666838
0.3224204981
0.3404420594
0.3586816448
0.3768978833
0.3948606816
0.4123512589
0.4291621466
0.4450971889
0.4599715423
0.4736116758
0.4858553706
0.4965517209
0.5055611328
0.5127553251
0.5180173292
0.5212414888
0.5223334600
0.5212102114
0.5178000241
0.5120054953
0.5038690523
0.4936585145
0.4816330146
0.4680373273
0.4531018698
0.4370427973
0.4200749791
0.4024251141
0.3843086663
0.3659267422
0.3474660903
0.3290991011
0.3109838072
0.2932638836
0.2760686470
0.2595130566
0.2436977133
0.2287088605
0.2146183834
0.2014838096
0.1893489690
0.1782474055
0.1681435526
0.1589841692
0.1507188777
0.1433001637
0.1366833764
0.1308267283
0.1256912952
0.1212410167
0.1174426474
0.1142554936
0.1116199065
0.1094778755
0.1077744028
0.1064573540
0.1054774579
0.1047883070
0.1043463569
0.1041109269
0.1040441995
0.1041112207
0.1042823829
0.1045390181
0.1048611420
0.1052291499
0.1056241102
0.1060277646
0.1064225281
0.1067914889
0.1071184084
0.1073877214
0.1075845358
0.1076946329
0.1077044672
0.1076011825
0.1073788598
0.1070479642
0.1066220584
0.1061153778
0.1055428316
0.1049205349
0.1042837168
0.1036494038
0.1030326288
0.1024620648
0.1019800250
0.1016424625
0.1015189707
0.1016927830
0.1022607731
0.1033334546
0.1050349813
0.1075031470
0.1108893858
0.1153587718
0.1210900193
0.1282727884
0.1370404469
0.1474349788
0.1594355082
0.1729549918
0.1878314384
0.2038358261
0.2206766838
0.2380004944
0.2553916957
0.2723726799
0.2884037936
0.3028833379
0.3151475686
0.3244755124
0.3304002415
0.3329417654
0.3322124954
0.3283787053
0.3216605311
0.3123319714
0.3007208871
0.2872090017
0.2722319010
0.2562790331
0.2398937086
0.2236731006
0.2082682445
0.1940580483
0.1810544465
0.1695019113
0.1595268671
0.1511320825
0.1441966707
0.1384760896
0.1336021414
0.1290829727
0.1243030748
0.1186139165
0.1106101552
0.0976105470
0.0785630278
0.0543102985
0.0275898254
0.0029202344
-0.0125725887
-0.0077315845
0.0266089041
0.0967928824
0.2063427029
0.3560484368
0.5385146280
0.7266018439
0.8905979351
1.0015720962
1.0316110741
0.9713125311
0.8373545200
0.6521815975
0.4435255448
0.2442499706
0.0766153407
-0.0528029730
-0.1399879525
-0.1855199699
-0.1945767877
-0.1763137889
-0.1407654793
-0.0982643231
-0.0567357019
-0.0214686324
0.0048842343
0.0223066125
0.0333710461
0.0406427590
0.0452384745
0.0482270595
0.0504611776
0.0525772890
0.0549977086
0.0579368193
0.0613948795
0.0652008228
0.0694757328
0.0743357240
0.0798449384
0.0860574335
0.0930171821
0.1007580728
0.1093039096
0.1186684118
0.1288552146
0.1398578685
0.1516598394
0.1642782386
0.1778506106
0.1922108864
0.2071565646
0.2224922085
0.2380294460
0.2535869696
0.2689905367
0.2840729690
0.2986741534
0.3126397158
0.3258161317
0.3380540120
0.3492105806
0.3591501257
0.3677439998
0.3748706205
0.3804154697
0.3842710943
0.3863371055
0.3865201795
0.3847340570
0.3808888369
0.3748162008
0.3666716762
0.3566960361
0.3451200122
0.3321642957
0.3180395371
0.3029463459
0.2870752909
0.2706069002
0.2537116608
0.2365500194
0.2192723814
0.2020196622
0.1849255523
0.1681146001
0.1517013135
0.1357901598
0.1204755653
0.1058419156
0.0919635555
0.0789047890
0.0667198793
0.0554530489
0.0451384793
0.0358018586
0.0274327078
0.0199658338
0.0133348420
0.0074759983
0.0023282298
-0.0021668756
-0.0060650693
-0.0094194416
-0.0122804221
-0.0146957796
-0.0167106219
-0.0183673960
-0.0197058213
-0.0207625763
-0.0215715917
-0.0221641673
-0.0225689422
-0.0228118950
-0.0229163432
-0.0229029433
-0.0227896912
-0.0225919220
-0.0223223096
-0.0219908673
-0.0216049474
-0.0211692416
-0.0206857804
-0.0201538576
-0.0195544895
-0.0188866146
-0.0181660336
-0.0174061194
-0.0166178172
-0.0158096448
-0.0149876923
-0.0141556222
-0.0133146694
-0.0124642871
-0.0116057318
-0.0107395355
-0.0098638071
-0.0089742278
-0.0080640514
-0.0071241039
-0.0061427838
-0.0051060620
-0.0039974818
-0.0027981588
-0.0014867811
-0.0000396090
0.0015695244
0.0033692140
0.0053502633
0.0074909410
0.0100190233
0.0131515665
0.0170729561
0.0219349060
0.0278564596
0.0349239886
0.0431911942
0.0526791060
0.0633769543
0.0752478071
0.0882255031
0.1022116906
0.1170753632
0.1326528432
0.1487466243
0.1649195406
0.1805658618
0.1951368514
0.2081458405
0.2191682273
0.2278414776
0.2338651246
0.2370007690
0.2370720787
0.2339647893
0.2276187577
0.2182049096
0.2061818611
0.1920146482
0.1761599594
0.1590661366
0.1411731743
0.1229127199
0.1047075172
0.0869672432
0.0700908502
0.0543882142
0.0397839797
0.0265879257
0.0150482322
0.0052599972
-0.0028347640
-0.0094471186
-0.0149412159
-0.0198342881
-0.0247966495
-0.0306516970
-0.0383759100
-0.0490988502
-0.0711340563
-0.1055645184
-0.1427729646
-0.1744454088
-0.1935741671
-0.1944578575
-0.1727014000
-0.1252160165
-0.0502192311
0.0527654869
0.1829118167
0.3380886161
0.5148578235
0.6993714531
0.8500276770
0.9373274772
0.9460686897
0.8750866220
0.7371170371
0.5530640891
0.3497675882
0.1511560238
-0.0250106649
-0.1671410887
-0.2687704272
-0.3297924499
-0.3561440080
-0.3542788008
-0.3310299376
-0.2936099378
-0.2496107305
-0.2070036551
-0.1725851471
-0.1463905540
-0.1270707349
-0.1133237809
-0.1038644321
-0.0974210764
-0.0927357023
-0.0885742624
-0.0842989778
-0.0798324427
-0.0750698218
-0.0699184900
-0.0642980323
-0.0581402444
-0.0513891320
-0.0440009112
-0.0359440084
-0.0271990603
-0.0177579375
-0.0076025611
0.0032933976
0.0149437610
0.0273491024
0.0404967455
0.0543607645
0.0689019846
0.0840679811
0.0997933925
0.1160036492
0.1326138968
0.1495264091
0.1666302516
0.1838012406
0.2009019431
0.2177816765
0.2342765087
0.2502092585
0.2653894951
0.2796718380
0.2929494796
0.3050357300
0.3157648062
0.3249935562
0.3326014591
0.3384906253
0.3425857964
0.3448343450
0.3452062749
0.3436942213
0.3403134504
0.3351018594
0.3281199770
0.3194510789
0.3092028265
0.2975036777
0.2844319133
0.2701545008
0.2548755246
0.2387901717
0.2220847317
0.2049365968
0.1875142617
0.1699773238
0.1524764829
0.1351535416
0.1181414049
0.1015640804
0.0855366784
0.0701654118
0.0555475958
0.0417716485
0.0289236335
0.0170702368
0.0062063602
-0.0036806846
-0.0126057543
-0.0205858741
-0.0276408042
-0.0338025517
-0.0391138838
-0.0436197448
-0.0473671889
-0.0504054385
-0.0527858850
-0.0545620879
-0.0557897756
-0.0565268449
-0.0568333611
-0.0567715582
-0.0564058386
-0.0558027734
-0.0550311022
-0.0541532114
-0.0531902880
-0.0521725363
-0.0511317213
-0.0500985417
-0.0491026295
-0.0481725502
-0.0473358031
-0.0466188206
-0.0460469687
-0.0456438794
-0.0454179579
-0.0453630160
-0.0454712576
-0.0457338206
-0.0461407761
-0.0466811287
-0.0473428166
-0.0481127114
-0.0489766182
-0.0499192756
-0.0509243556
-0.0519744639
-0.0530511394
-0.0541304286
-0.0551703123
-0.0561719405
-0.0571394478
-0.0580713330
-0.0589604593
-0.0597940539
-0.0605537083
-0.0612153781
-0.0617493834
-0.0621204082
-0.0622879062
-0.0622160803
-0.0618746183
-0.0612287004
-0.0602380805
-0.0588568768
-0.0570335719
-0.0547110124
-0.0518264092
-0.0483318240
-0.0442444732
-0.0393625474
-0.0334841903
-0.0264513632
-0.0181498453
-0.0085092331
0.0024970590
0.0148517989
0.0284939368
0.0433186055
0.0591771197
0.0758769766
0.0931818560
0.1108116196
0.1284423116
0.1457246631
0.1622767292
0.1775741481
0.1911489522
0.2026086094
0.2116360234
0.2179895333
0.2215029137
0.2220853751
0.2197215634
0.2144715600
0.2064524535
0.1958961545
0.1832516202
0.1689646093
0.1534616517
0.1371500479
0.1204178698
0.1036339600
0.0871479321
0.0712901708
0.0563718318
0.0425531567
0.0297213152
0.0182076957
0.0082553129
-0.0000321616
-0.0066914541
-0.0118949183
-0.0159504198
-0.0193015847
-0.0225278030
-0.0263442278
-0.0316017758
-0.0392871270
-0.0505227249
-0.0689431535
-0.1032731884
-0.1437833245
-0.1800134119
-0.2033342729
-0.2069477023
-0.1858864668
-0.1370143056
-0.0590259299
0.0475529765
0.1803657580
0.3352247865
0.5061114617
0.6851762111
0.8568195903
0.9850452623
1.0461909832
1.0293250797
0.9357849042
0.7791768343
0.5851371242
0.3810415674
0.1876035249
0.0205948338
-0.1098986062
-0.1994768331
-0.2494258222
-0.2645851769
-0.2515299847
-0.2208908171
-0.1815696735
-0.1405665394
-0.1029793861
-0.0720041707
-0.0489348364
-0.0329683770
-0.0219238007
-0.0145597872
-0.0098330318
-0.0068332059
-0.0047820140
-0.0030326087
-0.0010711044
0.0014832967
0.0048783994
0.0092290181
0.0145169771
0.0205911106
0.0271672624
0.0341972191
0.0419922317
0.0506068782
0.0600821857
0.0704464594
0.0817152825
0.0938915166
0.1069653015
0.1209140550
0.1357024730
0.1512825299
0.1675934779
0.1845618477
0.2021014479
0.2201133913
0.2385635661
0.2573299166
0.2761803269
0.2948933503
0.3132596477
0.3310819872
0.3481752448
0.3643664037
0.3794945547
0.3934108963
0.4059787341
0.4170734815
0.4265826594
0.4344058960
0.4404549272
0.4446535963
0.4469378540
0.4472557589
0.4455502990
0.4416028734
0.4355179866
0.4274974636
0.4177344744
0.4064135337
0.3937105009
0.3797926494
0.3648281347
0.3489956528
0.3324675799
0.3154076812
0.2979710695
0.2803042025
0.2625448829
0.2448222578
0.2272568195
0.2099604047
0.1930361952
0.1765787174
0.1606738427
0.1453987871
0.1308221115
0.1170037215
0.1039948677
0.0918381452
0.0805674941
0.0702092346
0.0607750307
0.0522265665
0.0445192232
0.0376106021
0.0314605027
0.0260261042
0.0212559151
0.0170991759
0.0135073476
0.0104341112
0.0078353679
0.0056692392
0.0038960667
0.0024784122
0.0013810577
0.0005710055
0.0000174780
-0.0003080823
-0.0004320126
-0.0003784298
-0.0001692309
0.0001759076
0.0006395292
0.0012063977
0.0018634970
0.0026000312
0.0034074248
0.0042793221
0.0052139264
0.0062153738
0.0072724474
0.0083747757
0.0095133542
0.0106801138
0.0118682544
0.0130722915
0.0142880563
0.0155126955
0.0167446715
0.0179837623
0.0192310613
0.0204889779
0.0217612368
0.0230528784
0.0243702588
0.0257210495
0.0271142379
0.0285601268
0.0300703346
0.0316577955
0.0333367591
0.0351227907
0.0370327712
0.0390833009
0.0412612699
0.0436548774
0.0463864017
0.0495705042
0.0533145357
0.0577185362
0.0628752357
0.0688700532
0.0757810975
0.0836791667
0.0926277484
0.1026830197
0.1138938473
0.1263017871
0.1399410849
0.1549049337
0.1711242641
0.1881604188
0.2055825567
0.2229793073
0.2399587702
0.2561485154
0.2711955832
0.2847664844
0.2965471999
0.3062431818
0.3135813109
0.3183141680
0.3202152885
0.3190784921
0.3147048107
0.3069806737
0.2963753295
0.2834325480
0.2686592946
0.2525257303
0.2354652114
0.2178742897
0.2001127126
0.1825034228
0.1653325586
0.1488494537
0.1332666374
0.1187598343
0.1054679646
0.0934931439
0.0829006833
0.0737190894
0.0667410562
0.0625187051
0.0592547391
0.0554173111
0.0498044604
0.0415493945
0.0301220129
0.0153289075
-0.0026866379
-0.0234446471
-0.0461284519
-0.0695846917
-0.0923233141
-0.1123572717
-0.1225762984
-0.1119819437
-0.0725334949
0.0004802364
0.1084409141
0.2494006778
0.4180821429
0.6060110192
0.7957577031
0.9546274937
1.0566902964
1.0860375049
1.0367820014
0.9131429209
0.7349333209
0.5332333121
0.3339367192
0.1563779795
0.0133329319
-0.0881275541
-0.1429231825
-0.1604877186
-0.1516667915
-0.1257943656
-0.0906927398
-0.0526725483
-0.0165327597
0.0144393221
0.0384680587
0.0552894765
0.0662231154
0.0742554340
0.0804956831
0.0854408565
0.0895384199
0.0931863109
0.0967329391
0.1004771862
0.1046684058
0.1095055992
0.1151344825
0.1216501744
0.1290982657
0.1374748188
0.1467263683
0.1567499208
0.1674078441
0.1788140945
0.1910425753
0.2040824360
0.2179078368
0.2324779491
0.2477369549
0.2636140476
0.2800234311
0.2968643206
0.3140209422
0.3313625328
0.3487433404
0.3660026239
0.3829646531
0.3994387090
0.4152493956
0.4302974987
0.4443598419
0.4572221662
0.4686955793
0.4786178089
0.4868524084
0.4932878690
0.4978376117
0.5004399871
0.5010582752
0.4996806859
0.4963203586
0.4910153622
0.4838286954
0.4748482865
0.4641869933
0.4519826033
0.4383978336
0.4235896877
0.4076356788
0.3907522130
0.3731603200
0.3550663134
0.3366617904
0.3181236319
0.2996140026
0.2812814153
0.2632658533
0.2456948141
0.2286810815
0.2123227232
0.1967030906
0.1818908188
0.1679398267
0.1548893168
0.1427637753
0.1315729724
0.1213224898
0.1120595267
0.1037459559
0.0963286323
0.0897567980
0.0839820825
0.0789585025
0.0746424622
0.0709927528
0.0679705531
0.0655394290
0.0636653338
0.0623166080
0.0614639796
0.0610786592
0.0611217050
0.0615513853
0.0623265897
0.0634071563
0.0647552676
0.0663354935
0.0681147911
0.0700625051
0.0721503671
0.0743524963
0.0766453991
0.0790079691
0.0814214874
0.0838696223
0.0863407627
0.0888191203
0.0912838531
0.0937151846
0.0960944085
0.0984038894
0.1006270617
0.1027484308
0.1047535722
0.1066291318
0.1083644946
0.1099625941
0.1114330848
0.1127867194
0.1140353211
0.1151917837
0.1162700712
0.1172852179
0.1182533289
0.1191915795
0.1201182153
0.1210525525
0.1220091823
0.1229827337
0.1240612225
0.1253501522
0.1269538501
0.1289754671
0.1315169774
0.1346791793
0.1385616942
0.1432629676
0.1488802683
0.1555096888
0.1632461451
0.1721825849
0.1824040273
0.1939909259
0.2070774297
0.2217530883
0.2376211807
0.2542581095
0.2712546281
0.2882158415
0.3047612058
0.3205245282
0.3351539673
0.3483120328
0.3596755856
0.3689358380
0.3757983534
0.3799830465
0.3812241830
0.3792703801
0.3738529030
0.3651389800
0.3537411494
0.3402364835
0.3251569761
0.3089895430
0.2921762692
0.2751165742
0.2581661618
0.2416356729
0.2257906706
0.2108516397
0.1969939868
0.1843480404
0.1729990511
0.1629871910
0.1543075544
0.1469101574
0.1411921000
0.1376439910
0.1343653480
0.1297069240
0.1224448288
0.1117805285
0.0973408456
0.0791779592
0.0577694049
0.0340180746
0.0092522168
-0.0151410267
-0.0341330935
-0.0345536321
-0.0062071191
0.0570309646
0.1572142546
0.2923250940
0.4562752893
0.6389062081
0.8258193183
0.9910295674
1.1022515788
1.1392190528
1.0950270169
0.9761318259
0.8023511619
0.6024333328
0.4008851916
0.2178577686
0.0673053899
-0.0430380908
-0.1116592931
-0.1423878530
-0.1398920726
-0.1149537527
-0.0775794050
-0.0357883412
0.0043872070
0.0389006443
0.0656914810
0.0846864048
0.0981421361
0.1080311241
0.1151734571
0.1203066629
0.1240861475
0.1270851949
0.1297949678
0.1326245068
0.1359007311
0.1398684380
0.1446903030
0.1504468801
0.1571366014
0.1646757773
0.1728985967
0.1815583101
0.1907192233
0.2005997592
0.2112152009
0.2225659237
0.2346373947
0.2474004586
0.2608153931
0.2748309457
0.2893812763
0.3043863607
0.3197514071
0.3353667157
0.3511076785
0.3668347798
0.3824017914
0.3977551444
0.4127022222
0.4270132453
0.4404787429
0.4529095529
0.4641368219
0.4740120052
0.4824068669
0.4892134797
0.4943442250
0.4977317932
0.4993291829
0.4991097019
0.4970669665
0.4932149016
0.4875874161
0.4802328999
0.4712150164
0.4605922663
0.4483656901
0.4347338452
0.4199138405
0.4041117120
0.3875224225
0.3703298621
0.3527068479
0.3348151238
0.3168053609
0.2988171572
0.2809790379
0.2634084550
0.2462117877
0.2294843421
0.2133103513
0.1977629756
0.1829043021
0.1687853451
0.1554460458
0.1429152724
0.1312124676
0.1203941112
0.1104407418
0.1012996046
0.0929203534
0.0852547324
0.0782565973
0.0718819255
0.0660888156
0.0608374881
0.0560902845
0.0518116680
0.0479682234
0.0445286569
0.0414637959
0.0387465898
0.0363521090
0.0342575457
0.0324422134
0.0308875471
0.0295771035
0.0284965604
0.0276337173
0.0269784953
0.0265229367
0.0262612056
0.0261892470
0.0262963385
0.0265645161
0.0269774829
0.0275210632
0.0281832028
0.0289539690
0.0298255507
0.0307922581
0.0318505230
0.0329990579
0.0342397075
0.0355528303
0.0369136180
0.0383003629
0.0396944580
0.0410803966
0.0424457730
0.0437812818
0.0450807181
0.0463409779
0.0475620576
0.0487470541
0.0499021649
0.0510366883
0.0521632482
0.0533047250
0.0544955636
0.0557736541
0.0571787557
0.0587531041
0.0605420305
0.0625571402
0.0648746242
0.0676849568
0.0711583790
0.0754431654
0.0806656246
0.0869300989
0.0943189642
0.1028926304
0.1126895411
0.1237261737
0.1359970395
0.1494746833
0.1641096839
0.1798458893
0.1966754411
0.2141235344
0.2316412551
0.2487263625
0.2649179601
0.2797947793
0.2929818738
0.3041511069
0.3130211524
0.3193574940
0.3229724256
0.3237250512
0.3215212848
0.3163138508
0.3081145704
0.2972461624
0.2842252978
0.2695384831
0.2536383853
0.2369438327
0.2198398143
0.2026774804
0.1857741420
0.1694132712
0.1538445011
0.1392836258
0.1259126003
0.1137816435
0.1027634410
0.0929570438
0.0843555422
0.0768169283
0.0700650351
0.0636891547
0.0571426723
0.0497430277
0.0406717162
0.0289742878
0.0135603474
-0.0067964447
-0.0354040780
-0.0737916073
-0.1098327821
-0.1327474880
-0.1341598732
-0.1080983485
-0.0509955874
0.0383114741
0.1585816372
0.3061694405
0.4750251601
0.6566948091
0.8341733943
0.9723879039
1.0460469896
1.0425886075
0.9621087502
0.8173624090
0.6308555248
0.4262884347
0.2265928454
0.0489142998
-0.0955228727
-0.2014155565
-0.2669045423
-0.2937142139
-0.2918765908
-0.2704539255
-0.2372007469
-0.1985638596
-0.1596823445
-0.1243875584
-0.0952031342
-0.0733449806
-0.0585768054
-0.0485093965
-0.0416853618
-0.0371086691
-0.0339293853
-0.0314394139
-0.0290689991
-0.0263937510
-0.0231368931
-0.0191695655
-0.0145091584
-0.0093192065
-0.0038095698
0.0022469698
0.0089449138
0.0163325688
0.0244485871
0.0333219679
0.0429720562
0.0534085435
0.0646314677
0.0766312129
0.0893885094
0.1028744340
0.1170504096
0.1318682056
0.1472795573
0.1633391331
0.1799199157
0.1968365553
0.2139088036
0.2309591687
0.2478169948
0.2643190218
0.2803093847
0.2956396140
0.3101686359
0.3237627717
0.3362957383
0.3476486481
0.3577100088
0.3663757236
0.3735490912
0.3791408056
0.3830689563
0.3852590283
0.3856439020
0.3841638531
0.3806865936
0.3750488072
0.3674424027
0.3580718904
0.3471335662
0.3348155116
0.3212976008
0.3067530308
0.2913502596
0.2752500184
0.2586059288
0.2415654608
0.2242680963
0.2068451028
0.1894195335
0.1721062274
0.1550118090
0.1382346886
0.1218650622
0.1059849114
0.0906680037
0.0759798920
0.0619779151
0.0487111974
0.0362206490
0.0245389658
0.0136906292
0.0036919065
-0.0054491495
-0.0137313761
-0.0211634484
-0.0277918939
-0.0336691742
-0.0388507465
-0.0433907355
-0.0473411337
-0.0507518015
-0.0536704673
-0.0561427272
-0.0582120456
-0.0599197543
-0.0613050535
-0.0624050110
-0.0632545626
-0.0638865120
-0.0643315309
-0.0646181587
-0.0647728029
-0.0648197388
-0.0647811097
-0.0646769268
-0.0645250691
-0.0643412837
-0.0641391853
-0.0639302569
-0.0637238491
-0.0635177094
-0.0632864531
-0.0630381237
-0.0627816310
-0.0625250082
-0.0622772489
-0.0620460490
-0.0618372946
-0.0616550624
-0.0615016193
-0.0613774229
-0.0612811210
-0.0612095520
-0.0611577446
-0.0611189180
-0.0610844818
-0.0610440361
-0.0609853712
-0.0608944681
-0.0607554981
-0.0605508230
-0.0602609948
-0.0598647563
-0.0593390404
-0.0586589706
-0.0577978612
-0.0567286560
-0.0554270887
-0.0538680011
-0.0520244250
-0.0498675828
-0.0473745136
-0.0445717517
-0.0412922418
-0.0373409421
-0.0325516833
-0.0267871689
-0.0199389750
-0.0119275502
-0.0027022160
0.0077588336
0.0194485320
0.0323309398
0.0463412451
0.0613857632
0.0773419370
0.0940583364
0.1113546589
0.1290468778
0.1467701575
0.1639931036
0.1802344386
0.1950654939
0.2081112569
0.2190513451
0.2276225838
0.2336167394
0.2368795383
0.2373106663
0.2348637687
0.2295464504
0.2213993654
0.2107244643
0.1979684793
0.1835564012
0.1678912939
0.1513542949
0.1343046149
0.1170795380
0.0999944218
0.0833426971
0.0673958682
0.0524035127
0.0385920187
0.0259958310
0.0146398306
0.0045812442
-0.0042074119
-0.0118400866
-0.0185177905
-0.0245285960
-0.0302476373
-0.0361371102
-0.0427462725
-0.0507114435
-0.0607560045
-0.0736903983
-0.0904121298
-0.1119057655
-0.1389761580
-0.1679482743
-0.1917277422
-0.2037322476
-0.1980146641
-0.1692630533
-0.1128006645
-0.0245859345
0.0988212058
0.2598552388
0.4437088007
0.6299433760
0.7989396305
0.9318982234
1.0108390659
1.0186006956
0.9431376815
0.8012522052
0.6190260642
0.4192953455
0.2216127562
0.0422476230
-0.1058141070
-0.2134635543
-0.2811512423
-0.3142756367
-0.3186816494
-0.3006189210
-0.2667418202
-0.2241094445
-0.1801856196
-0.1425514269
-0.1135486032
-0.0918137120
-0.0761000124
-0.0651656610
-0.0577737126
-0.0526927075
-0.0486991239
-0.0447844019
-0.0407611837
-0.0365183771
-0.0319516870
-0.0269704775
-0.0214977721
-0.0154702532
-0.0088382625
-0.0015658009
0.0063694716
0.0149762897
0.0242649052
0.0342682922
0.0450121946
0.0565100300
0.0687628897
0.0817595388
0.0954764160
0.1098776338
0.1249149782
0.1405279093
0.1566435604
0.1731767388
0.1900305162
0.2070990898
0.2242655806
0.2414008804
0.2583649324
0.2750063900
0.2911616055
0.3066546051
0.3213361900
0.3351285183
0.3478531957
0.3593442567
0.3694566995
0.3780664864
0.3850705433
0.3903867601
0.3939539907
0.3957320525
0.3957017271
0.3938647597
0.3902438597
0.3848827000
0.3778459175
0.3692191131
0.3591088513
0.3476420802
0.3349582944
0.3211219192
0.3062890109
0.2906549350
0.2744041784
0.2577103491
0.2407361765
0.2236335114
0.2065433257
0.1895957129
0.1729098875
0.1565941855
0.1407460641
0.1254521020
0.1107879990
0.0968185764
0.0835977765
0.0711686633
0.0595634218
0.0488200765
0.0389999722
0.0300600212
0.0219472036
0.0146098899
0.0079981532
0.0020658020
-0.0032308972
-0.0079342979
-0.0120858334
-0.0157260901
-0.0188942937
-0.0216282796
-0.0239644923
-0.0259379858
-0.0275824234
-0.0289300777
-0.0300118307
-0.0308571737
-0.0314942075
-0.0319496420
-0.0322487967
-0.0324156002
-0.0324725906
-0.0324409155
-0.0323403315
-0.0321892047
-0.0320045107
-0.0318018343
-0.0315937709
-0.0313622137
-0.0311046349
-0.0308282813
-0.0305393882
-0.0302431856
-0.0299438979
-0.0296447443
-0.0293479384
-0.0290546885
-0.0287651975
-0.0284786628
-0.0281932764
-0.0279062250
-0.0276136898
-0.0273108466
-0.0269918658
-0.0266499124
-0.0262771458
-0.0258647204
-0.0254027848
-0.0248804825
-0.0242859512
-0.0236063235
-0.0228277266
-0.0219352820
-0.0209134851
-0.0197495450
-0.0184317753
-0.0169475058
-0.0153525123
-0.0136120431
-0.0115715591
-0.0090896527
-0.0060381143
-0.0023019320
0.0022207076
0.0076184201
0.0139666230
0.0213275359
0.0297501801
0.0392703790
0.0499107579
0.0616807443
0.0745765674
0.0885812583
0.1036646503
0.1197833785
0.1369152219
0.1547199866
0.1726836471
0.1903313987
0.2072278321
0.2229768795
0.2372217247
0.2496448011
0.2599677921
0.2679516310
0.2733965009
0.2761418347
0.2760663154
0.2730878754
0.2671588247
0.2583296050
0.2470292702
0.2337314443
0.2188797182
0.2028876497
0.1861387638
0.1689865521
0.1517544737
0.1347359541
0.1181943863
0.1023631299
0.0874455116
0.0736148251
0.0610149702
0.0497038127
0.0395440401
0.0305997969
0.0228436683
0.0161228517
0.0101596448
0.0045515493
-0.0012287285
-0.0078332788
-0.0160389870
-0.0267475348
-0.0409853995
-0.0599038544
-0.0866825375
-0.1221895549
-0.1560668853
-0.1791040979
-0.1838898567
-0.1648119209
-0.1180571448
-0.0416114774
0.0647400368
0.1994132588
0.3590249543
0.5383917760
0.7276246734
0.8975054138
1.0212966181
1.0803221318
1.0634900937
0.9705112700
0.8145104767
0.6187745573
0.4154934585
0.2283857094
0.0721345738
-0.0444735079
-0.1184305161
-0.1522160869
-0.1543912400
-0.1333805993
-0.0972505432
-0.0537092047
-0.0101064711
0.0266348501
0.0537522993
0.0730739827
0.0863453170
0.0951436017
0.1008789210
0.1048095050
0.1080332862
0.1111488135
0.1142986495
0.1176104529
0.1211984103
0.1251630007
0.1295909961
0.1345554611
0.1401157530
0.1463175221
0.1531956690
0.1607997907
0.1691801452
0.1783728189
0.1883997026
0.1992684922
0.2109726881
0.2234915954
0.2367903240
0.2508197884
0.2655167081
0.2808036069
0.2965888136
0.3127658234
0.3292001937
0.3457300427
0.3621787554
0.3783555215
0.3940553355
0.4090589964
0.4231331080
0.4360871764
0.4478160681
0.4581430624
0.4669123417
0.4739922739
0.4792754127
0.4826784971
0.4841424518
0.4836323868
0.4811375980
0.4766715667
0.4702719598
0.4620006296
0.4519436142
0.4402111370
0.4269376072
0.4122816193
0.3964264600
0.3795927937
0.3620395846
0.3439523031
0.3254476149
0.3067306529
0.2879907660
0.2694013163
0.2511196812
0.2332872533
0.2160294403
0.1994556652
0.1836593663
0.1687179971
0.1546930263
0.1416299377
0.1295582305
0.1184914192
0.1084270332
0.0993466175
0.0912157320
0.0839982992
0.0777111315
0.0723153750
0.0677650166
0.0640164638
0.0610170732
0.0587029254
0.0570120723
0.0558853555
0.0552664064
0.0551016465
0.0553402867
0.0559343280
0.0568385611
0.0580105666
0.0594107150
0.0610021663
0.0627508706
0.0646255678
0.0665977874
0.0686418490
0.0707348619
0.0728567428
0.0749914626
0.0771199430
0.0792213645
0.0812758102
0.0832642654
0.0851686176
0.0869718369
0.0886650467
0.0902498434
0.0917293801
0.0931077599
0.0943906281
0.0955849932
0.0966987762
0.0977408004
0.0987207914
0.0996493771
0.1005380878
0.1013993559
0.1022465163
0.1030938061
0.1039563647
0.1048502340
0.1057923579
0.1068004437
0.1078538382
0.1090046943
0.1103637510
0.1120395409
0.1141383899
0.1167644176
0.1200194759
0.1240000374
0.1287957118
0.1344935312
0.1411783214
0.1489327016
0.1578370843
0.1679696758
0.1794064758
0.1922212777
0.2065661365
0.2225321075
0.2396296720
0.2573574979
0.2752440210
0.2928474454
0.3097557430
0.3255866539
0.3399876860
0.3526361155
0.3632389864
0.3715331108
0.3772850688
0.3802912086
0.3803776462
0.3774002588
0.3712463234
0.3620581384
0.3503850547
0.3367795635
0.3217525432
0.3057732029
0.2892696475
0.2726289094
0.2561969479
0.2402786494
0.2251378275
0.2109972227
0.1980385030
0.1864022632
0.1761269898
0.1670034940
0.1591531844
0.1525675585
0.1470330890
0.1421312238
0.1372383862
0.1315259745
0.1239603622
0.1133028984
0.0981544960
0.0776960465
0.0524103531
0.0245463319
-0.0018097185
-0.0207341161
-0.0246416041
-0.0065722317
0.0423214106
0.1276538781
0.2502835628
0.4063126938
0.5871850540
0.7787637537
0.9482305280
1.0657704963
1.1114939686
1.0754364451
0.9580796058
0.7813365555
0.5794685986
0.3804562621
0.2051647293
0.0673438402
-0.0263305081
-0.0772510355
-0.0912735446
-0.0760841107
-0.0411534737
0.0022957427
0.0444896133
0.0809590227
0.1094052023
0.1293822225
0.1422969929
0.1511038727
0.1575688741
0.1627033295
0.1673220628
0.1719883543
0.1770139414
0.1824590181
0.1882577941
0.1945173234
0.2012798929
0.2085790777
0.2164426601
0.2248926296
0.2339451832
0.2436107247
0.2538995153
0.2649109687
0.2766411839
0.2890310123
0.3020136519
0.3155146462
0.3294518849
0.3437356039
0.3582683848
0.3729451555
0.3876531896
0.4022721070
0.4166738735
0.4307228008
0.4442755468
0.4571811153
0.4692808563
0.4804084654
0.4903899847
0.4990438019
0.5061806510
0.5116036120
0.5150973643
0.5164944396
0.5158733276
0.5133455789
0.5090223440
0.5030048924
0.4953977837
0.4863113146
0.4758606993
0.4641646806
0.4513473711
0.4375386216
0.4228740207
0.4074948952
0.3915483100
0.3751870677
0.3585697093
0.3418605137
0.3252294978
0.3088524166
0.2929107631
0.2775917683
0.2630884013
0.2495818395
0.2370601969
0.2254824465
0.2148221172
0.2050500450
0.1961343757
0.1880429824
0.1807479584
0.1742199301
0.1684268315
0.1633339035
0.1589036941
0.1550960586
0.1518681593
0.1491744659
0.1469667550
0.1451941105
0.1438029233
0.1427368916
0.1419370208
0.1413416233
0.1408863186
0.1405187478
0.1402505814
0.1400682779
0.1399546475
0.1398937755
0.1398710226
0.1398730245
0.1398876919
0.1399042109
0.1399129515
0.1399052667
0.1398737260
0.1398121737
0.1397163240
0.1395857676
0.1394220821
0.1392281205
0.1390080106
0.1387671558
0.1385122343
0.1382589901
0.1380227529
0.1377893977
0.1375489940
0.1372972590
0.1370355574
0.1367709015
0.1365159511
0.1362890137
0.1361140441
0.1360206451
0.1360440665
0.1362252062
0.1366106092
0.1372507766
0.1381957346
0.1394997723
0.1411822605
0.1432442178
0.1459296348
0.1494640379
0.1540318787
0.1597765344
0.1668003079
0.1751644275
0.1848890472
0.1959532463
0.2082950299
0.2218113286
0.2363579984
0.2517498210
0.2677605035
0.2842320062
0.3007162354
0.3164585564
0.3308004791
0.3431822528
0.3531428662
0.3603200476
0.3644533714
0.3653938296
0.3630943876
0.3576067502
0.3490810998
0.3377644602
0.3240017585
0.3082333546
0.2908829984
0.2725167892
0.2537167335
0.2349923283
0.2167805607
0.1994459082
0.1832803388
0.1685033107
0.1552617724
0.1436301630
0.1336104116
0.1251319378
0.1180516518
0.1121539536
0.1076545341
0.1042707575
0.0996720637
0.0921109615
0.0805100982
0.0644759826
0.0443045235
0.0209810302
-0.0038197875
-0.0288539701
-0.0449173762
-0.0383617590
0.0001979464
0.0758242840
0.1892572770
0.3369144281
0.5108907193
0.6989583859
0.8795498605
1.0156124475
1.0796783089
1.0593316869
0.9572089037
0.7909983615
0.5924104282
0.3904205421
0.2058591576
0.0537881910
-0.0571020555
-0.1244701155
-0.1523424328
-0.1485119721
-0.1219340404
-0.0839445757
-0.0434165268
-0.0066817101
0.0224691787
0.0427865648
0.0555618596
0.0634433076
0.0679216067
0.0702500001
0.0714664359
0.0723935672
0.0736387517
0.0755940519
0.0784362353
0.0821267740
0.0864660157
0.0916272512
0.0977532326
0.1049227380
0.1132048801
0.1226527861
0.1332727919
0.1450480574
0.1579520580
0.1719486040
0.1869918408
0.2030395105
0.2201590391
0.2382086659
0.2569852153
0.2762878360
0.2959180009
0.3156795071
0.3353784761
0.3548233533
0.3738249086
0.3921962361
0.4097527540
0.4263122048
0.4416946553
0.4557224965
0.4682204433
0.4790155354
0.4879371364
0.4948169340
0.4994941820
0.5018453352
0.5017387311
0.4988717864
0.4933865553
0.4855360332
0.4755645483
0.4637081645
0.4501947012
0.4352437339
0.4190665939
0.4018663681
0.3838378994
0.3651677866
0.3460343842
0.3266078025
0.3070499077
0.2875143218
0.2681464226
0.2490833438
0.2304539749
0.2123789612
0.1949707037
0.1783333596
0.1625628415
0.1477442437
0.1339349554
0.1211752266
0.1094970173
0.0989240432
0.0894603863
0.0810418185
0.0735914179
0.0670355909
0.0613034580
0.0563268542
0.0520403289
0.0483811456
0.0452892825
0.0427074319
0.0405810006
0.0388581096
0.0374895944
0.0364290048
0.0356326049
0.0350593732
0.0346710026
0.0344319003
0.0343091878
0.0342727011
0.0342955804
0.0343587662
0.0344485107
0.0345538017
0.0346663479
0.0347810498
0.0348963006
0.0350141036
0.0351419858
0.0352727040
0.0353971138
0.0355076785
0.0355984695
0.0356651657
0.0357050544
0.0357170302
0.0357015960
0.0356608625
0.0355985481
0.0355199792
0.0354320901
0.0353434230
0.0352641278
0.0352059624
0.0351822927
0.0352081604
0.0353008874
0.0354797867
0.0357657835
0.0361814109
0.0367476363
0.0374643224
0.0384428034
0.0398200267
0.0417257074
0.0442823273
0.0476051356
0.0518021486
0.0569741499
0.0632146901
0.0706100869
0.0792394254
0.0891745578
0.1004801032
0.1132134482
0.1275031649
0.1431817178
0.1597886724
0.1768785520
0.1940219458
0.2108052072
0.2268273217
0.2417011616
0.2550556305
0.2665356968
0.2758018175
0.2825290330
0.2864082156
0.2871463032
0.2844513911
0.2783363326
0.2693318906
0.2579716799
0.2447566407
0.2301550384
0.2146024635
0.1985018321
0.1822233854
0.1661046898
0.1504506372
0.1355334445
0.1215926543
0.1088351341
0.0974350767
0.0875148248
0.0788275001
0.0713908120
0.0651986124
0.0600261788
0.0554301357
0.0507484543
0.0451004529
0.0373867969
0.0262894983
0.0102587333
-0.0118333107
-0.0380015547
-0.0645733004
-0.0866665957
-0.0981902343
-0.0918437562
-0.0591174474
0.0071555840
0.1110337975
0.2525594538
0.4244412464
0.6120468016
0.7934026780
0.9391943670
1.0171824674
1.0134324988
0.9284777961
0.7777417643
0.5866845397
0.3822246136
0.1877280555
0.0205680916
-0.1083020119
-0.1974164090
-0.2484653788
-0.2652464194
-0.2536642477
-0.2217307994
-0.1795652290
-0.1379150771
-0.1011528756
-0.0709196719
-0.0479803980
-0.0322092970
-0.0225899228
-0.0172151404
-0.0134634898
-0.0103472484
-0.0076220176
-0.0049739117
-0.0021505811
0.0010396726
0.0047277762
0.0089830965
0.0138134129
0.0191842858
0.0251532157
0.0317894436
0.0391455658
0.0472613714
0.0561638433
0.0658671578
0.0763726846
0.0876689866
0.0997318205
0.1125241362
0.1259960769
0.1400849796
0.1547153744
0.1697989849
0.1852347283
0.2009594343
0.2169177385
0.2328817888
0.2486299405
0.2639544465
0.2786621136
0.2925742800
0.3055261774
0.3173669031
0.3279593459
0.3371797497
0.3449180094
0.3510778849
0.3555770022
0.3583468527
0.3593327938
0.3584940489
0.3558037070
0.3512487228
0.3448062562
0.3363909734
0.3261786738
0.3143817999
0.3012047574
0.2868439154
0.2714876064
0.2553161261
0.2385017339
0.2212086524
0.2035930759
0.1858033852
0.1679801638
0.1502559703
0.1327553269
0.1155947189
0.0988825952
0.0827193680
0.0671974128
0.0524010685
0.0384066375
0.0252823854
0.0130885414
0.0018775429
-0.0082957975
-0.0174565625
-0.0256633548
-0.0329727955
-0.0394395245
-0.0451162000
-0.0500534990
-0.0543001168
-0.0579027674
-0.0609061835
-0.0633531161
-0.0652844834
-0.0667440300
-0.0677792551
-0.0684360128
-0.0687581756
-0.0687876673
-0.0685648170
-0.0681282281
-0.0675145265
-0.0667583572
-0.0658923833
-0.0649472867
-0.0639517678
-0.0629325455
-0.0619143574
-0.0609199596
-0.0599701266
-0.0590836516
-0.0582773465
-0.0575627918
-0.0569251366
-0.0563808958
-0.0559540412
-0.0556667100
-0.0555392045
-0.0555897049
-0.0558228634
-0.0562259975
-0.0567835219
-0.0574780167
-0.0582902273
-0.0591990643
-0.0601816033
-0.0612130854
-0.0622669170
-0.0633146695
-0.0643260797
-0.0652690496
-0.0661096464
-0.0668121026
-0.0673388158
-0.0676503491
-0.0677054305
-0.0674609536
-0.0668719770
-0.0658917246
-0.0645580391
-0.0628167225
-0.0604211267
-0.0571510646
-0.0528145974
-0.0472633538
-0.0403999301
-0.0321567206
-0.0224940703
-0.0114002633
0.0011087427
0.0149893203
0.0301699039
0.0465509768
0.0640050716
0.0823767700
0.1014827029
0.1211143229
0.1408997826
0.1602528086
0.1786275847
0.1955371332
0.2105533139
0.2233068249
0.2334872023
0.2408428201
0.2451808905
0.2463674635
0.2443274272
0.2390315180
0.2306833256
0.2197402512
0.2066545745
0.1918640089
0.1757917013
0.1588462320
0.1414216152
0.1238972985
0.1066381631
0.0899945237
0.0743021289
0.0595949381
0.0458706177
0.0334780162
0.0226231963
0.0133664294
0.0056221956
-0.0008408162
-0.0063997088
-0.0115773758
-0.0170425025
-0.0236095654
-0.0322388323
-0.0440363622
-0.0603285936
-0.0907125800
-0.1318181221
-0.1717966682
-0.2008185509
-0.2110729871
-0.1967680341
-0.1541305646
-0.0814063302
0.0211400328
0.1512250032
0.3045461752
0.4747822581
0.6535930762
0.8257432106
0.9548200832
1.0155329904
0.9964608347
0.8994706810
0.7397177557
0.5444735014
0.3408735793
0.1509934525
-0.0092289436
-0.1303335224
-0.2093380394
-0.2490367348
-0.2535310152
-0.2334087226
-0.1988289572
-0.1580767370
-0.1175629971
-0.0818245904
-0.0535242870
-0.0334070682
-0.0197733651
-0.0107577644
-0.0049379894
-0.0011100163
0.0017119257
0.0042953545
0.0071895352
0.0107254800
0.0150159480
0.0199554455
0.0252326850
0.0309183038
0.0372214573
0.0441969177
0.0518893025
0.0603330773
0.0695532487
0.0795662561
0.0903786047
0.1019866446
0.1143765711
0.1275243593
0.1413956701
0.1559478011
0.1712598290
0.1872517305
0.2037233434
0.2204816225
0.2373406400
0.2541215852
0.2706527646
0.2867696020
0.3023146384
0.3171375319
0.3310950581
0.3440511095
0.3558766961
0.3664499448
0.3756561000
0.3833875232
0.3895436902
0.3940299302
0.3967554590
0.3976361002
0.3965947951
0.3935104185
0.3881812895
0.3808005979
0.3715990068
0.3607974706
0.3486072345
0.3352298345
0.3208570979
0.3056711428
0.2898443783
0.2735395045
0.2569095125
0.2400976843
0.2232375928
0.2064531022
0.1898583674
0.1735578342
0.1576462398
0.1422086118
0.1273202693
0.1130468242
0.0994461886
0.0865723337
0.0744705496
0.0631764177
0.0527158102
0.0431048861
0.0343500777
0.0264518436
0.0193859277
0.0130962309
0.0075280992
0.0026294053
-0.0016494522
-0.0053555478
-0.0085334298
-0.0112251201
-0.0134701140
-0.0153053805
-0.0167653622
-0.0178819751
-0.0186846091
-0.0192001273
-0.0194528665
-0.0194646372
-0.0192547242
-0.0188425583
-0.0182536724
-0.0175128107
-0.0166421914
-0.0156615060
-0.0145879195
-0.0134360708
-0.0122173176
-0.0109143497
-0.0095361267
-0.0081085863
-0.0066555883
-0.0051989147
-0.0037582698
-0.0023512802
-0.0009934944
0.0003016165
0.0015226594
0.0026603191
0.0037073580
0.0046586162
0.0055110118
0.0062635407
0.0069172764
0.0074753704
0.0079461938
0.0083516239
0.0087182129
0.0090745912
0.0094514668
0.0098816439
0.0104001248
0.0110440377
0.0118525888
0.0128670620
0.0141308191
0.0156865424
0.0175228622
0.0198112579
0.0227746188
0.0266049944
0.0314635946
0.0374807893
0.0447561088
0.0533582434
0.0633250437
0.0746635207
0.0873498453
0.1013293489
0.1165165228
0.1327916025
0.1499899722
0.1680033528
0.1865315430
0.2048965322
0.2224857645
0.2387627525
0.2532670779
0.2656143909
0.2754964104
0.2826809239
0.2870117878
0.2884089272
0.2868683357
0.2824620759
0.2753382787
0.2657211441
0.2538996150
0.2402038027
0.2251701432
0.2093181914
0.1931089149
0.1769446938
0.1611693208
0.1460680013
0.1318702641
0.1187605174
0.1068684733
0.0962652573
0.0869634070
0.0789168680
0.0720209439
0.0661389802
0.0610839088
0.0563801660
0.0513822958
0.0452872544
0.0371344108
0.0258055462
0.0100248545
-0.0114586975
-0.0374118735
-0.0642581813
-0.0873757343
-0.1011148204
-0.0987979025
-0.0727196180
-0.0160945136
0.0758074741
0.2056667433
0.3691420504
0.5547785961
0.7440149459
0.9111863670
1.0272666009
1.0718915580
1.0356757662
0.9227118928
0.7506035381
0.5497437161
0.3498685049
0.1720473550
0.0304256387
-0.0680658686
-0.1237085182
-0.1401959896
-0.1267319132
-0.0950984152
-0.0549433885
-0.0137804930
0.0230108448
0.0521854315
0.0726869553
0.0861896836
0.0947805300
0.1001100243
0.1035434018
0.1061552350
0.1087263429
0.1117437866
0.1154008738
0.1195972604
0.1240615559
0.1290375317
0.1346408437
0.1409320457
0.1479631544
0.1557776492
0.1644104723
0.1738880289
0.1842281868
0.1954402765
0.2075250917
0.2205637985
0.2345866500
0.2494461755
0.2649939979
0.2810819109
0.2975618786
0.3142860356
0.3311054982
0.3478636002
0.3644005837
0.3805568511
0.3961729758
0.4110897014
0.4251479422
0.4381887829
0.4500534790
0.4605834564
0.4696203115
0.4770058112
0.4825818933
0.4861906657
0.4876659545
0.4869100865
0.4840402729
0.4791957992
0.4725173553
0.4641470355
0.4542283387
0.4429061684
0.4303268325
0.4166380435
0.4019889182
0.3865309082
0.3704239375
0.3538325804
0.3369228329
0.3198620955
0.3028191670
0.2859639247
0.2694671637
0.2535010440
0.2382391302
0.2238558902
0.2104241280
0.1979228699
0.1863529114
0.1757106564
0.1659881164
0.1571729115
0.1492482698
0.1421930274
0.1359816288
0.1305841264
0.1259661809
0.1220890610
0.1189096437
0.1163804140
0.1144484253
0.1130473257
0.1121017466
0.1115318899
0.1112587943
0.1112556248
0.1114887085
0.1119184605
0.1125074292
0.1132202964
0.1140238772
0.1148871198
0.1157811062
0.1166790514
0.1175563038
0.1183903451
0.1191607906
0.1198493886
0.1204400210
0.1209187028
0.1212735825
0.1214949419
0.1215777769
0.1215180159
0.1212949262
0.1208901527
0.1203030200
0.1195439025
0.1186254530
0.1175624984
0.1163720413
0.1150735877
0.1136895867
0.1122447710
0.1107660476
0.1092824976
0.1078253762
0.1064281127
0.1051263106
0.1039577476
0.1029623755
0.1021823202
0.1016368391
0.1013391722
0.1014662514
0.1021952212
0.1036893379
0.1060979696
0.1095565963
0.1141868098
0.1200946831
0.1273537494
0.1360117627
0.1461023966
0.1576454370
0.1706467812
0.1850984387
0.2010178281
0.2184497547
0.2368119646
0.2554719034
0.2738502859
0.2914210956
0.3077115852
0.3223022765
0.3348269603
0.3449726962
0.3524798131
0.3571419088
0.3588058502
0.3573717730
0.3527930822
0.3450766389
0.3344359403
0.3214556437
0.3067236532
0.2907881560
0.2741537412
0.2572721354
0.2405420017
0.2243089397
0.2088654309
0.1944506866
0.1812508066
0.1693988268
0.1589811956
0.1509366747
0.1449780309
0.1398960491
0.1346569805
0.1284025427
0.1204499197
0.1102917621
0.0975961869
0.0822067774
0.0641425836
0.0435981217
0.0209433744
-0.0032762090
-0.0268767361
-0.0386709038
-0.0267910642
0.0168751864
0.0966820109
0.2132254679
0.3633435116
0.5401159914
0.7321072835
0.9087511122
1.0344470683
1.0866992119
1.0564585044
0.9481228085
0.7793231363
0.5792779000
0.3778457254
0.1974388760
0.0527403751
-0.0492959946
-0.1082391571
-0.1258177330
-0.1138825049
-0.0838422077
-0.0450530294
-0.0048186113
0.0316101670
0.0610389121
0.0823292263
0.0963981210
0.1060753193
0.1130054044
0.1179868404
0.1217202225
0.1248089731
0.1277597717
0.1309825553
0.1347905191
0.1394001157
0.1449310557
0.1514063075
0.1587520972
0.1667979088
0.1754085480
0.1848272882
0.1951153185
0.2062981725
0.2183847354
0.2313672447
0.2452212901
0.2599058133
0.2753628819
0.2915129738
0.3082551148
0.3254714843
0.3430276138
0.3608668406
0.3788535347
0.3967155061
0.4141983744
0.4310656670
0.4470988185
0.4620971711
0.4758779743
0.4882763854
0.4991454688
0.5083561965
0.5157974482
0.5213760108
0.5250165787
0.5266617539
0.5262720457
0.5238258710
0.5193195543
0.5127366107
0.5039904533
0.4932881405
0.4808763699
0.4669960708
0.4518768813
0.4357368605
0.4187824876
0.4012088569
0.3832015432
0.3649357829
0.3465752495
0.3282720376
0.3101666621
0.2923880584
0.2750535826
0.2582690113
0.2421285415
0.2267147911
0.2120987983
0.1983400219
0.1854863413
0.1735740565
0.1626366643
0.1526930650
0.1436869414
0.1355585103
0.1282504961
0.1217048307
0.1158619779
0.1106647727
0.1060586620
0.1019917046
0.0984145714
0.0952805452
0.0925455206
0.0901680043
0.0881091149
0.0863325828
0.0848047507
0.0834945728
0.0823736155
0.0814160572
0.0805986881
0.0799009103
0.0793047380
0.0787947973
0.0783583261
0.0779851744
0.0776678041
0.0774012890
0.0771833150
0.0770141931
0.0768974001
0.0768396944
0.0768411965
0.0768922987
0.0769847731
0.0771123144
0.0772689643
0.0774492299
0.0776495646
0.0778684272
0.0781062810
0.0783655947
0.0786508417
0.0789685003
0.0793270539
0.0797369907
0.0802108040
0.0807629921
0.0814100579
0.0821705097
0.0830648605
0.0841048234
0.0852840124
0.0867297338
0.0885815121
0.0909702750
0.0940185602
0.0978399295
0.1025389178
0.1082110328
0.1149427549
0.1228115377
0.1318858073
0.1422249630
0.1538793767
0.1668903932
0.1813748110
0.1972085100
0.2138615024
0.2308249868
0.2476195417
0.2637951264
0.2789310806
0.2926361243
0.3045483579
0.3143352624
0.3216936991
0.3263499098
0.3280595167
0.3266075374
0.3218046289
0.3134569327
0.3020517855
0.2882619376
0.2727050180
0.2559435455
0.2384854006
0.2207840321
0.2032378209
0.1861900271
0.1699287901
0.1546871285
0.1406429404
0.1279190030
0.1165829728
0.1066473857
0.0980696568
0.0907520803
0.0845372668
0.0784155898
0.0711284732
0.0621356620
0.0513106645
0.0389407511
0.0257269361
0.0127820664
0.0016292078
-0.0057951914
-0.0071409201
0.0003559955
0.0198732920
0.0550024686
0.1097487872
0.1885312725
0.2961827118
0.4379496552
0.6180797512
0.8078886967
0.9656560824
1.0638030391
1.0867835542
1.0310844721
0.9051132261
0.7272834372
0.5255902396
0.3249236033
0.1440819049
-0.0042280720
-0.1130255457
-0.1803795238
-0.2116885192
-0.2135538494
-0.1929652218
-0.1573009038
-0.1143277225
-0.0722010632
-0.0378231179
-0.0115648701
0.0075531455
0.0206465942
0.0289870000
0.0340017456
0.0372740721
0.0401262319
0.0428262217
0.0455748973
0.0485432218
0.0518704816
0.0556642854
0.0600005650
0.0649235749
0.0704458922
0.0765650804
0.0833317151
0.0908023822
0.0990198716
0.1080128920
0.1177966492
0.1283729394
0.1397301501
0.1518432593
0.1646738356
0.1781700388
0.1922666190
0.2068849176
0.2219328662
0.2373049876
0.2528823952
0.2685327932
0.2841807054
0.2996995384
0.3148599360
0.3294486048
0.3432684776
0.3561387133
0.3678946972
0.3783880409
0.3874865822
0.3950743850
0.4010517445
0.4053372941
0.4078713192
0.4086111907
0.4075305058
0.4046190878
0.3998829863
0.3933440997
0.3849784670
0.3747596669
0.3629023045
0.3496237428
0.3351325324
0.3196284125
0.3033023101
0.2863363405
0.2689038070
0.2511692013
0.2332882030
0.2154076798
0.1976656876
0.1801914706
0.1631054608
0.1465192786
0.1305357325
0.1152488153
0.1007400189
0.0870713824
0.0742942258
0.0624510575
0.0515755738
0.0416926730
0.0328403204
0.0249930972
0.0180798154
0.0120313301
0.0067805401
0.0022623876
-0.0015861417
-0.0048260184
-0.0075161699
-0.0097134797
-0.0114727883
-0.0128468921
-0.0138865446
-0.0146404553
-0.0151552904
-0.0154756727
-0.0156441813
-0.0157013518
-0.0156856755
-0.0156302405
-0.0155551907
-0.0154764200
-0.0154077784
-0.0153610727
-0.0153460660
-0.0153702945
-0.0154381723
-0.0155516774
-0.0157107435
-0.0159132611
-0.0161550768
-0.0164299941
-0.0167297727
-0.0170441290
-0.0173607356
-0.0176652219
-0.0179332490
-0.0181278602
-0.0182647247
-0.0183609837
-0.0184293873
-0.0184782949
-0.0185116752
-0.0185291059
-0.0185276972
-0.0185071993
-0.0184645773
-0.0183924058
-0.0182788683
-0.0181077578
-0.0178584761
-0.0175060344
-0.0170210531
-0.0163697617
-0.0155139989
-0.0144112125
-0.0130144597
-0.0112724066
-0.0091293286
-0.0065251104
-0.0033952456
0.0002813930
0.0045611616
0.0096795137
0.0158327327
0.0231701480
0.0317941353
0.0417601161
0.0530765581
0.0657053893
0.0795632915
0.0945204327
0.1104000268
0.1269783338
0.1439846597
0.1611012669
0.1779625644
0.1941736804
0.2093636456
0.2230201490
0.2346852086
0.2439870286
0.2506399989
0.2544446955
0.2552878802
0.2531425008
0.2480676910
0.2402087705
0.2297944055
0.2170621359
0.2024564184
0.1864733453
0.1695706087
0.1521675010
0.1346457535
0.1173525985
0.1005980013
0.0846535273
0.0697523421
0.0560892112
0.0439238324
0.0333696838
0.0242289776
0.0162602258
0.0091806702
0.0026662822
-0.0036482366
-0.0101694551
-0.0173452124
-0.0256646174
-0.0356580497
-0.0478971588
-0.0629948644
-0.0816053565
-0.1044240951
-0.1320178857
-0.1590252648
-0.1750423815
-0.1714941708
-0.1419125888
-0.0819432912
0.0106599196
0.1360377910
0.2922256220
0.4756284452
0.6730439352
0.8493377574
0.9758852594
1.0343657676
1.0167625564
0.9253628490
0.7727578166
0.5818365735
0.3795769463
0.1843774691
0.0103127575
-0.1325639476
-0.2382207797
-0.3046472471
-0.3338542328
-0.3318739940
-0.3085793495
-0.2724272736
-0.2304246464
-0.1887255585
-0.1517536106
-0.1222083004
-0.1010687273
-0.0875935982
-0.0793212277
-0.0735011001
-0.0696089702
-0.0669351510
-0.0648836395
-0.0629778027
-0.0608603776
-0.0582934711
-0.0551585599
-0.0514564909
-0.0472949345
-0.0426123048
-0.0373014428
-0.0313029009
-0.0245658082
-0.0170478700
-0.0087153681
0.0004568392
0.0104853171
0.0213780545
0.0331327418
0.0457269144
0.0591247589
0.0732818707
0.0881452686
0.1036997175
0.1200134847
0.1369048895
0.1541729959
0.1716247039
0.1890748227
0.2063460706
0.2232690749
0.2396823720
0.2554324075
0.2703735361
0.2843680214
0.2972860364
0.3090056629
0.3194128920
0.3284016239
0.3358736676
0.3417387416
0.3459144733
0.3483263992
0.3489100403
0.3476246861
0.3444448519
0.3393530015
0.3322787871
0.3232879235
0.3125852610
0.3003692258
0.2868317343
0.2721581928
0.2565274974
0.2401120346
0.2230776807
0.2055838022
0.1877832554
0.1698223868
0.1518410328
0.1339725199
0.1163436647
0.0990747738
0.0822796436
0.0660655608
0.0505333020
0.0357771338
0.0218848130
0.0089354203
-0.0030173509
-0.0139360487
-0.0237897606
-0.0325488775
-0.0402520393
-0.0469687307
-0.0527667887
-0.0577123426
-0.0618699133
-0.0653024274
-0.0680712175
-0.0702360224
-0.0718549866
-0.0729846607
-0.0736800013
-0.0739943709
-0.0739795379
-0.0736856769
-0.0731613682
-0.0724535983
-0.0716077594
-0.0706676499
-0.0696754742
-0.0686718424
-0.0676941770
-0.0667623888
-0.0658856423
-0.0650713986
-0.0643255250
-0.0636522945
-0.0630543861
-0.0625328848
-0.0620872818
-0.0617154738
-0.0613850044
-0.0610580093
-0.0607430398
-0.0604471021
-0.0601752566
-0.0599306175
-0.0597143532
-0.0595256859
-0.0593618920
-0.0592183018
-0.0590882998
-0.0589633241
-0.0588328674
-0.0586844759
-0.0585037501
-0.0582753950
-0.0579942606
-0.0576609938
-0.0572744218
-0.0568314262
-0.0563269421
-0.0557539589
-0.0551029248
-0.0543603141
-0.0535102231
-0.0525348023
-0.0514142561
-0.0501268430
-0.0486488756
-0.0469547202
-0.0450167974
-0.0428042866
-0.0401310542
-0.0368101456
-0.0327554982
-0.0279004494
-0.0221977361
-0.0156194950
-0.0081572626
0.0001780249
0.0093566689
0.0193380775
0.0300683194
0.0414741933
0.0534630985
0.0659230343
0.0787226006
0.0917109972
0.1047180245
0.1175540830
0.1300101733
0.1418578967
0.1528494545
0.1627176482
0.1711758797
0.1779181512
0.1826190651
0.1849338241
0.1844982312
0.1809286895
0.1738222556
0.1634295977
0.1505960729
0.1358045632
0.1195082346
0.1021305193
0.0840648660
0.0656747954
0.0472941060
0.0292268799
0.0117474832
-0.0048994347
-0.0204995390
-0.0348715535
-0.0478650778
-0.0593426074
-0.0689620002
-0.0769158579
-0.0836000980
-0.0894184968
-0.0947826903
-0.1001121735
-0.1058343010
-0.1123842863
-0.1202052025
-0.1297479818
-0.1414714160
-0.1558421559
-0.1733347116
-0.1944314527
-0.2195579688
-0.2446618089
-0.2603736804
-0.2586577098
-0.2332666969
-0.1797421149
-0.0954141101
0.0205984980
0.1673882167
0.3422495937
0.5348579756
0.7217119051
0.8796664747
0.9875033906
1.0259309727
0.9819098041
0.8660505546
0.6981793521
0.5008799296
0.2994931244
0.1184659917
-0.0305249600
-0.1416956625
-0.2129991856
-0.2461308885
-0.2465278856
-0.2232519929
-0.1858200134
-0.1426310748
-0.1004612621
-0.0639940262
-0.0358201840
-0.0164376395
-0.0042490271
0.0039602297
0.0095445247
0.0133708506
0.0162427867
0.0187957313
0.0214969016
0.0246453342
0.0283718844
0.0326392269
0.0373546656
0.0426791671
0.0486916862
0.0554553663
0.0630251239
0.0714476487
0.0807614038
0.0909962050
0.1021624138
0.1142499949
0.1272400771
0.1411055623
0.1558272063
0.1715400397
0.1881296505
0.2054034999
0.2231742995
0.2412600115
0.2594838487
0.2776742745
0.2956650032
0.3132949992
0.3304084780
0.3468549054
0.3624889981
0.3771707230
0.3907652979
0.4031431913
0.4141801221
0.4237570599
0.4317602249
0.4380810880
0.4426166132
0.4452770145
0.4459873844
0.4446786379
0.4412207730
0.4355131750
0.4277818115
0.4182595839
0.4071683947
0.3947194102
0.3811145127
0.3665463479
0.3511983251
0.3352446172
0.3188501609
0.3021706561
0.2853525664
0.2685331193
0.2518403055
0.2353928793
0.2193003589
0.2036630257
0.1885719249
0.1741088653
0.1603464192
0.1473478403
0.1351637326
0.1238308993
0.1133765887
0.1038188125
0.0951663461
0.0874187284
0.0805706410
0.0745824490
0.0693902942
0.0649325993
0.0611501730
0.0579862098
0.0553862900
0.0532983798
0.0516728312
0.0504623821
0.0496221561
0.0491096630
0.0488847980
0.0489098424
0.0491494634
0.0495707139
0.0501430328
0.0508382446
0.0516305578
0.0524964600
0.0534146650
0.0543662601
0.0553347180
0.0563058974
0.0572680429
0.0582118193
0.0591316264
0.0600288090
0.0609035703
0.0617464309
0.0625488182
0.0633033278
0.0640037232
0.0646449362
0.0652230666
0.0657353825
0.0661803200
0.0665574831
0.0668676444
0.0671127442
0.0672958910
0.0674213617
0.0674946009
0.0675222460
0.0675138659
0.0674831160
0.0674450941
0.0674160659
0.0674134653
0.0674558943
0.0675631231
0.0677560899
0.0680328132
0.0684387931
0.0690946004
0.0701167502
0.0716170353
0.0737025263
0.0764755715
0.0800337968
0.0844701062
0.0898726812
0.0963249810
0.1039057428
0.1126889812
0.1227439889
0.1341353361
0.1469380222
0.1612923362
0.1768753909
0.1932613593
0.2100405494
0.2268197243
0.2432221011
0.2588873515
0.2734715965
0.2866466497
0.2980992332
0.3075323369
0.3146654047
0.3192343353
0.3209914816
0.3197056512
0.3151289304
0.3073734181
0.2969984520
0.2845386835
0.2704901855
0.2553104517
0.2394183975
0.2231943590
0.2069800940
0.1910787812
0.1757550215
0.1612349772
0.1477065204
0.1353189799
0.1241831059
0.1143710695
0.1059164633
0.0988216177
0.0946881115
0.0930060876
0.0915881321
0.0886991263
0.0830562459
0.0738289620
0.0606390403
0.0435605414
0.0231198210
0.0002955293
-0.0234813882
-0.0463276912
-0.0659078448
-0.0788412637
-0.0756062974
-0.0457903913
0.0171988072
0.1160769342
0.2496840837
0.4129863442
0.5970734640
0.7869977741
0.9534616901
1.0691999383
1.1157807755
1.0836126325
0.9722882124
0.8006589577
0.6009338704
0.4005355691
0.2211077928
0.0783356953
-0.0214510387
-0.0794038274
-0.0996395191
-0.0890614414
-0.0573594018
-0.0163209745
0.0254020537
0.0622959399
0.0911558327
0.1111242870
0.1236912606
0.1318685726
0.1371958485
0.1408964535
0.1439258975
0.1469561564
0.1503756722
0.1542893525
0.1586104253
0.1634694142
0.1689352932
0.1750583113
0.1818833615
0.1894499810
0.1977923510
0.2069392969
0.2169149787
0.2277892940
0.2395653081
0.2521875863
0.2655907989
0.2796997211
0.2944292333
0.3096843208
0.3253600740
0.3413416897
0.3575060046
0.3737244091
0.3898592000
0.4057627788
0.4212776525
0.4362364327
0.4504618364
0.4637666505
0.4759535822
0.4868153826
0.4961349079
0.5036849669
0.5092720271
0.5128615825
0.5144648596
0.5141065311
0.5118247166
0.5076709821
0.5017103404
0.4940212508
0.4846956192
0.4738387982
0.4615695869
0.4480202311
0.4333364230
0.4176764872
0.4012095403
0.3841176054
0.3665961520
0.3488540966
0.3311138019
0.3136110775
0.2965951795
0.2802992942
0.2647457198
0.2499722491
0.2360266789
0.2229482616
0.2107677051
0.1995071730
0.1891802843
0.1797921136
0.1713391913
0.1638095032
0.1571824905
0.1514290504
0.1465115354
0.1423837535
0.1389909684
0.1362698994
0.1341478672
0.1325405098
0.1313542003
0.1305075495
0.1299974579
0.1297863423
0.1298333187
0.1300997645
0.1305483569
0.1311435867
0.1318523222
0.1326438142
0.1334896962
0.1343639841
0.1352430768
0.1361057553
0.1369331835
0.1377089078
0.1384188571
0.1390513431
0.1395970598
0.1400490841
0.1404028762
0.1406537435
0.1407885525
0.1407962857
0.1406805378
0.1404498377
0.1401142665
0.1396854582
0.1391765993
0.1386024286
0.1379792379
0.1373248711
0.1366587249
0.1360017485
0.1353764438
0.1348068651
0.1343186192
0.1339388656
0.1336963162
0.1335215454
0.1334129776
0.1335615170
0.1341449415
0.1353268495
0.1372566592
0.1400696094
0.1438867588
0.1488149865
0.1549427548
0.1623245463
0.1709948854
0.1809741157
0.1922684011
0.2048697259
0.2187558945
0.2338906690
0.2502258747
0.2677342992
0.2860625721
0.3045141892
0.3224521035
0.3393072071
0.3545783310
0.3678322454
0.3787036593
0.3868952206
0.3921775164
0.3943890727
0.3934363545
0.3892937657
0.3820036493
0.3716613170
0.3585949817
0.3434386109
0.3268020294
0.3092410985
0.2912522548
0.2732725068
0.2556794350
0.2387911918
0.2228665016
0.2081046609
0.1946455381
0.1825695734
0.1718977791
0.1625715557
0.1544169193
0.1473309949
0.1410021268
0.1348682975
0.1281171277
0.1196858765
0.1082614409
0.0922864975
0.0708079184
0.0447838889
0.0170485601
-0.0076031876
-0.0224173915
-0.0191071359
0.0100861571
0.0739174888
0.1765822871
0.3168953259
0.4882907254
0.6811838486
0.8693127960
1.0142250662
1.0900553431
1.0841124571
0.9968793861
0.8420132546
0.6463453342
0.4439169220
0.2554195275
0.0953230136
-0.0269244353
-0.1069370142
-0.1453912980
-0.1480262414
-0.1255442498
-0.0886156601
-0.0456911296
-0.0038434084
0.0320697300
0.0594019918
0.0777160988
0.0887837802
0.0962449736
0.1016228012
0.1055996660
0.1089056501
0.1121009238
0.1155757461
0.1195504643
0.1240755141
0.1290531422
0.1345540946
0.1406726907
0.1474626665
0.1549695330
0.1632305759
0.1722748559
0.1821232088
0.1927882450
0.2042743500
0.2165776839
0.2297444311
0.2438556374
0.2587682074
0.2743267262
0.2903764730
0.3067634280
0.3233342726
0.3399363890
0.3564178699
0.3726286467
0.3884215562
0.4036503886
0.4181696351
0.4318344881
0.4445008408
0.4560252874
0.4662651231
0.4750783441
0.4823236476
0.4878604319
0.4915487959
0.4932495400
0.4928112348
0.4901776851
0.4854884336
0.4788937620
0.4705439713
0.4605881702
0.4491749344
0.4364530090
0.4225713147
0.4076789476
0.3919251794
0.3754594572
0.3584314035
0.3409908164
0.3232876693
0.3054721114
0.2876944671
0.2701052363
0.2528550944
0.2360948925
0.2199756567
0.2046485891
0.1902502810
0.1767918459
0.1642460041
0.1525871038
0.1417878324
0.1318192160
0.1226506195
0.1142502810
0.1065901435
0.0996435878
0.0933823715
0.0877765909
0.0827946811
0.0784034163
0.0745679091
0.0712511928
0.0684133466
0.0660125406
0.0640052833
0.0623464222
0.0609891440
0.0598849738
0.0589837758
0.0582641809
0.0577408856
0.0574041941
0.0572452600
0.0572562852
0.0574305195
0.0577622608
0.0582468551
0.0588806964
0.0596603753
0.0605736733
0.0616030787
0.0627320234
0.0639449870
0.0652274976
0.0665661310
0.0679485113
0.0693633104
0.0708002486
0.0722500940
0.0737072997
0.0751754805
0.0766309728
0.0780498801
0.0794133418
0.0807075335
0.0819236669
0.0830579896
0.0841117854
0.0850913742
0.0860081117
0.0868783901
0.0877236373
0.0885703174
0.0894508174
0.0904144754
0.0915241912
0.0928082157
0.0943111810
0.0962564249
0.0988473494
0.1022576065
0.1066312253
0.1120831288
0.1186986922
0.1265335404
0.1356135479
0.1459348391
0.1574637877
0.1701370173
0.1838614011
0.1985223385
0.2140901346
0.2300448105
0.2457493670
0.2606365863
0.2742090316
0.2860390475
0.2957687597
0.3031094918
0.3078331750
0.3097742269
0.3088366447
0.3049942068
0.2982904730
0.2888387841
0.2767800607
0.2624441994
0.2464642032
0.2294251541
0.2118503124
0.1942011173
0.1768771866
0.1602163166
0.1444944820
0.1299258366
0.1166627122
0.1047956198
0.0943532485
0.0853024663
0.0775483196
0.0709340335
0.0652410118
0.0603204925
0.0558813155
0.0503930847
0.0425144264
0.0312307459
0.0158540679
-0.0039769640
-0.0282970869
-0.0566829718
-0.0835152434
-0.1004189034
-0.0999178794
-0.0754613724
-0.0214238563
0.0668949224
0.1933019181
0.3572568290
0.5420334359
0.7260213322
0.8860710624
0.9974941219
1.0343729821
0.9870133032
0.8691184480
0.6984813442
0.4962999548
0.2871770517
0.0983903565
-0.0568820231
-0.1752159709
-0.2547479278
-0.2966815362
-0.3052876405
-0.2879042866
-0.2543642118
-0.2131061368
-0.1707531461
-0.1322171176
-0.1006608002
-0.0774978144
-0.0623926521
-0.0532606764
-0.0468599873
-0.0422997724
-0.0389852088
-0.0363346129
-0.0338862828
-0.0312984983
-0.0283495212
-0.0249375949
-0.0210809446
-0.0168899270
-0.0122828896
-0.0071659477
-0.0014770259
0.0048367028
0.0118188174
0.0195036487
0.0279162793
0.0370725511
0.0469791702
0.0576336822
0.0690243869
0.0811303358
0.0939213324
0.1073654151
0.1215636273
0.1364167223
0.1517381754
0.1673493754
0.1830796237
0.1987661353
0.2142540380
0.2293963729
0.2440540940
0.2580960685
0.2713988029
0.2838376042
0.2952846765
0.3056194779
0.3147293796
0.3225096660
0.3288635346
0.3337020958
0.3369443734
0.3385173042
0.3383557380
0.3364024378
0.3325774633
0.3267785380
0.3191736397
0.3099538738
0.2993029540
0.2873972033
0.2744055531
0.2604895438
0.2458033245
0.2304936530
0.2146998962
0.1985540293
0.1821806368
0.1656970480
0.1492189275
0.1328622397
0.1167360982
0.1009422252
0.0855749519
0.0707212182
0.0564605728
0.0428651634
0.0299994355
0.0179200703
0.0066763363
-0.0036898896
-0.0131376175
-0.0216839570
-0.0293838647
-0.0362904011
-0.0424546886
-0.0479259111
-0.0527513143
-0.0569762052
-0.0606439527
-0.0637959874
-0.0664718012
-0.0687089478
-0.0705430777
-0.0720098004
-0.0731456220
-0.0739853420
-0.0745618213
-0.0749059826
-0.0750468103
-0.0750113502
-0.0748247100
-0.0745100586
-0.0740886271
-0.0735797078
-0.0730006548
-0.0723668837
-0.0716918720
-0.0709871586
-0.0702623440
-0.0695250905
-0.0687811219
-0.0680342237
-0.0672862430
-0.0665370886
-0.0657847307
-0.0650252015
-0.0642525945
-0.0634537593
-0.0626110108
-0.0617468921
-0.0608842245
-0.0600418856
-0.0592348083
-0.0584739820
-0.0577664515
-0.0571153136
-0.0565192713
-0.0559722525
-0.0554641507
-0.0549809152
-0.0545045514
-0.0540131206
-0.0534807400
-0.0528775826
-0.0521698774
-0.0513199094
-0.0502860193
-0.0490226039
-0.0474801157
-0.0456050634
-0.0433400114
-0.0406568001
-0.0375761795
-0.0338706593
-0.0293214795
-0.0237519396
-0.0170274938
-0.0090557503
0.0002135278
0.0107884235
0.0226348651
0.0356766266
0.0497953275
0.0648304330
0.0805792539
0.0967969465
0.1131965129
0.1294488005
0.1451867128
0.1600643353
0.1736022471
0.1853396518
0.1948957711
0.2019698443
0.2063411288
0.2078688997
0.2064924500
0.2022310940
0.1951846735
0.1855341028
0.1734838622
0.1594043443
0.1437748010
0.1270433546
0.1096269475
0.0919113418
0.0742508344
0.0569677028
0.0403528909
0.0246661631
0.0101361034
-0.0030796621
-0.0149464994
-0.0254107172
-0.0344940015
-0.0422994947
-0.0490117953
-0.0548969577
-0.0603024925
-0.0656573665
-0.0714720023
-0.0783382789
-0.0869295368
-0.0980020009
-0.1123966572
-0.1310364137
-0.1549387150
-0.1837194233
-0.2098027413
-0.2248924961
-0.2220153212
-0.1955206559
-0.1410807463
-0.0556906445
0.0623317913
0.2133458963
0.3985570563
0.5991565245
0.7808696708
0.9175962718
0.9917434731
0.9942257896
0.9244651052
0.7903906732
0.6089626092
0.4075151167
0.2088734468
0.0300830757
-0.1167807696
-0.2246098534
-0.2912673856
-0.3195888694
-0.3173821018
-0.2935504544
-0.2558968992
-0.2128955625
-0.1710173385
-0.1347297366
-0.1064969493
-0.0867798807
-0.0740361466
-0.0651396305
-0.0587823641
-0.0541806443
-0.0505752314
-0.0473492046
-0.0440279613
-0.0402792178
-0.0359130088
-0.0308816875
-0.0252799259
-0.0191930073
-0.0124572345
-0.0050111283
0.0031869563
0.0121680626
0.0219540121
0.0325574043
0.0439816169
0.0562208057
0.0692599044
0.0830746252
0.0976314580
0.1128876710
0.1287913107
0.1453672739
0.1626333759
0.1803850108
0.1984205452
0.2165463199
0.2345766497
0.2523338232
0.2696481032
0.2863577264
0.3023089033
0.3173558186
0.3313606308
0.3441934731
0.3557345752
0.3658790965
0.3745315926
0.3816045934
0.3870186026
0.3907020979
0.3925915310
0.3926313275
0.3907739541
0.3869803860
0.3811521169
0.3733129810
0.3636725110
0.3524338787
0.3397928135
0.3259376015
0.3110490865
0.2953006690
0.2788583072
0.2618805162
0.2445183683
0.2269154932
0.2092080776
0.1915248654
0.1739871580
0.1567083329
0.1397925498
0.1233361160
0.1074278960
0.0921493116
0.0775743416
0.0637695223
0.0507939468
0.0386992659
0.0275296871
0.0173281033
0.0081025685
-0.0002019360
-0.0076413373
-0.0142696091
-0.0201387714
-0.0252988903
-0.0297980783
-0.0336824945
-0.0369963438
-0.0397818778
-0.0420793943
-0.0439272374
-0.0453617974
-0.0464175110
-0.0471280690
-0.0475302364
-0.0476601329
-0.0475519247
-0.0472378242
-0.0467480901
-0.0461110273
-0.0453529873
-0.0444984007
-0.0435702169
-0.0425897836
-0.0415765033
-0.0405478250
-0.0395192437
-0.0385043010
-0.0375145845
-0.0365597284
-0.0356474131
-0.0347833652
-0.0339713578
-0.0332132102
-0.0325087879
-0.0318419504
-0.0311988559
-0.0306126196
-0.0301113573
-0.0297077663
-0.0294070464
-0.0292101876
-0.0291139699
-0.0291109640
-0.0291895311
-0.0293338224
-0.0295237800
-0.0297351360
-0.0299394133
-0.0301039248
-0.0301917742
-0.0301618553
-0.0299688525
-0.0295632406
-0.0288912847
-0.0278950404
-0.0265123537
-0.0246768609
-0.0223179890
-0.0193609552
-0.0157376665
-0.0114192731
-0.0061983678
0.0001298932
0.0077135178
0.0166529463
0.0270056174
0.0387859716
0.0519654508
0.0664724983
0.0821925589
0.0989680813
0.1165985857
0.1348406734
0.1534079519
0.1719712765
0.1902320766
0.2077178703
0.2238918525
0.2382924676
0.2505334099
0.2603036231
0.2673673008
0.2715638862
0.2728080723
0.2710898017
0.2664742666
0.2591019090
0.2491524096
0.2369329233
0.2229496096
0.2076791522
0.1915608447
0.1749965905
0.1583509031
0.1419509059
0.1260863322
0.1110095252
0.0969354382
0.0840416344
0.0725962439
0.0634677861
0.0561676479
0.0499856691
0.0442826356
0.0384902800
0.0321112813
0.0247192652
0.0159588036
0.0055454150
-0.0067344356
-0.0210233367
-0.0373929304
-0.0558445221
-0.0763126151
-0.0986624902
-0.1227578744
-0.1438619398
-0.1493263354
-0.1290101832
-0.0763694939
0.0115428366
0.1340772907
0.2869879348
0.4624319947
0.6489698082
0.8307333650
0.9791877110
1.0660141911
1.0750382812
1.0024689562
0.8574748912
0.6673990291
0.4640187112
0.2723635979
0.1104699655
-0.0105409822
-0.0882125412
-0.1261111921
-0.1300070782
-0.1077775733
-0.0694062281
-0.0265650162
0.0130890185
0.0462802344
0.0713408140
0.0881841136
0.0983046630
0.1046573549
0.1091488543
0.1125092030
0.1154004301
0.1183136746
0.1215691852
0.1253163204
0.1295335851
0.1341978559
0.1394185421
0.1452497284
0.1517370249
0.1589175670
0.1668200153
0.1754645561
0.1848639981
0.1950323475
0.2059801674
0.2177406834
0.2303750658
0.2437805693
0.2578382801
0.2724259346
0.2874179198
0.3026848862
0.3180930526
0.3335051001
0.3487803606
0.3637748165
0.3783411008
0.3923284970
0.4055829394
0.4179470128
0.4292599525
0.4393576445
0.4480726254
0.4552340824
0.4606678531
0.4642019908
0.4657906111
0.4654994261
0.4633938332
0.4595418619
0.4540215594
0.4469210820
0.4383386956
0.4283827750
0.4171718049
0.4048343788
0.3915091998
0.3773450803
0.3625009420
0.3471458160
0.3314588426
0.3156292715
0.2998564617
0.2843498817
0.2693291090
0.2549708821
0.2412945589
0.2283390848
0.2161375847
0.2047146789
0.1940864827
0.1842606064
0.1752367727
0.1670133853
0.1595849866
0.1529376916
0.1470491105
0.1418883488
0.1374160068
0.1335841802
0.1303364595
0.1276083107
0.1253284264
0.1234174875
0.1217883241
0.1204136945
0.1192848313
0.1183675077
0.1176300075
0.1170431252
0.1165801662
0.1162169466
0.1159317930
0.1157055432
0.1155215452
0.1153656581
0.1152262517
0.1150941887
0.1149626022
0.1148269635
0.1146852508
0.1145379531
0.1143880700
0.1142413020
0.1141016349
0.1139645782
0.1138260835
0.1136835990
0.1135360694
0.1133839359
0.1132291366
0.1130751059
0.1129267749
0.1127905714
0.1126744197
0.1125877406
0.1125414517
0.1125479671
0.1126211975
0.1127765502
0.1130309291
0.1134027346
0.1139117953
0.1145344626
0.1153064807
0.1163579630
0.1178138224
0.1197934979
0.1224109544
0.1257746832
0.1299877015
0.1351472431
0.1413427251
0.1486570189
0.1571675165
0.1669461360
0.1780593214
0.1905680431
0.2045311879
0.2201816652
0.2371899840
0.2549584728
0.2729317800
0.2905968742
0.3074830437
0.3231618971
0.3372473626
0.3493957087
0.3593058953
0.3667195324
0.3714205611
0.3732352428
0.3720321586
0.3677222099
0.3602648549
0.3499332000
0.3373305132
0.3230321559
0.3075683857
0.2914243559
0.2750401161
0.2588106118
0.2430856845
0.2281700718
0.2143234072
0.2017602203
0.1906436023
0.1808301570
0.1724027209
0.1654702200
0.1599366086
0.1555008691
0.1516569833
0.1476933143
0.1426926170
0.1355326473
0.1249156779
0.1095792704
0.0886822784
0.0633247745
0.0367646162
0.0144176185
0.0033946641
0.0119542344
0.0491882069
0.1211230561
0.2304888662
0.3767193313
0.5562938145
0.7473859229
0.9202590720
1.0492710592
1.1129057018
1.0937549992
0.9867081013
0.8192060140
0.6221350351
0.4221883478
0.2418666355
0.0992805192
0.0019083968
-0.0525781354
-0.0692258886
-0.0556663489
-0.0221156773
0.0190021043
0.0586468786
0.0923144214
0.1175746194
0.1340448216
0.1433898393
0.1489025419
0.1522621874
0.1544281574
0.1561900891
0.1580978979
0.1604617773
0.1633521991
0.1667163316
0.1706827027
0.1753179422
0.1806783336
0.1868135980
0.1937670762
0.2015757702
0.2102701271
0.2198934643
0.2305668973
0.2422372581
0.2548130866
0.2681960930
0.2822811087
0.2969547849
0.3120954636
0.3275745813
0.3432567452
0.3589997329
0.3746544924
0.3900651421
0.4050689709
0.4194964380
0.4331711733
0.4459099767
0.4575228190
0.4678128411
0.4765763543
0.4836028407
0.4886749472
0.4915277542
0.4920842655
0.4904727404
0.4868253442
0.4812768407
0.4739645928
0.4650285624
0.4546113103
0.4428579961
0.4299163785
0.4159368150
0.4010722620
0.3854782751
0.3693130086
0.3527372156
0.3359142485
0.3190100584
0.3021931953
0.2856348082
0.2695086450
0.2539910526
0.2392609768
0.2254999624
0.2128565389
0.2012719355
0.1907042752
0.1811200357
0.1724835833
0.1647573061
0.1579016144
0.1518749405
0.1466337385
0.1421324847
0.1383236815
0.1351581837
0.1325854262
0.1305529199
0.1290061974
0.1278888135
0.1271423452
0.1267063910
0.1265185718
0.1265145304
0.1266384446
0.1268853666
0.1272358486
0.1276681612
0.1281620172
0.1286985722
0.1292604480
0.1298334317
0.1304076310
0.1309748696
0.1315284138
0.1320629726
0.1325746977
0.1330611835
0.1335214669
0.1339560278
0.1343667884
0.1347571138
0.1351318117
0.1355044064
0.1358904340
0.1362738950
0.1366422896
0.1369886068
0.1373113250
0.1376144114
0.1379073224
0.1382050032
0.1385278885
0.1389019019
0.1393584558
0.1399344404
0.1406710246
0.1416126134
0.1428088548
0.1443148862
0.1461726545
0.1483524372
0.1510819764
0.1546048539
0.1591230840
0.1647970592
0.1717454602
0.1800453765
0.1897323300
0.2008002748
0.2132015980
0.2268471186
0.2416060884
0.2573061916
0.2737335449
0.2907527492
0.3078759935
0.3243230176
0.3394156566
0.3525787289
0.3633400393
0.3713307685
0.3762858973
0.3780434914
0.3765446005
0.3718332576
0.3640564794
0.3534642664
0.3404096023
0.3253267334
0.3086615239
0.2910353264
0.2730262465
0.2551354279
0.2377870528
0.2213283416
0.2060295529
0.1920839837
0.1796079692
0.1686408831
0.1591451370
0.1510061811
0.1440325037
0.1379805569
0.1335910893
0.1291111209
0.1221012149
0.1109700594
0.0949726515
0.0742099979
0.0496291139
0.0230230245
-0.0031799230
-0.0266416802
-0.0329625407
-0.0088973003
0.0533577932
0.1561643587
0.2964416286
0.4656664489
0.6498732790
0.8293082509
0.9712890665
1.0440509359
1.0325923963
0.9389135319
0.7816899607
0.5866926609
0.3820149534
0.1911267755
0.0302733794
-0.0914468075
-0.1700319682
-0.2096645008
-0.2172434729
-0.2001211582
-0.1661030368
-0.1234477946
-0.0808673238
-0.0459653840
-0.0193889294
-0.0001033501
0.0130761020
0.0215117726
0.0267436056
0.0304863441
0.0339349383
0.0373167483
0.0408373517
0.0446672866
0.0489420515
0.0537621050
0.0591928664
0.0652647153
0.0719743342
0.0793391522
0.0874217817
0.0962772110
0.1059463666
0.1164553580
0.1278154779
0.1400232018
0.1530601884
0.1668932795
0.1814744999
0.1967407779
0.2126122206
0.2289932432
0.2457734401
0.2628275891
0.2800156506
0.2972573650
0.3144134318
0.3312397038
0.3475099987
0.3630161970
0.3775682422
0.3909941408
0.4031399624
0.4138698395
0.4230659672
0.4306269905
0.4364643050
0.4405062775
0.4426993377
0.4430079783
0.4414147550
0.4379202865
0.4325359725
0.4251655820
0.4159435002
0.4050919815
0.3928234967
0.3793407332
0.3648365946
0.3494942008
0.3334868885
0.3169782103
0.3001219355
0.2830620498
0.2659327551
0.2488584699
0.2319538289
0.2153236835
0.1990631010
0.1832573657
0.1679848323
0.1533246635
0.1393486947
0.1261189779
0.1136877810
0.1021043364
0.0914168236
0.0815806554
0.0725402560
0.0642424899
0.0566388381
0.0496846480
0.0433375500
0.0375574268
0.0323064130
0.0275488955
0.0232515134
0.0193831577
0.0159149716
0.0128203506
0.0100749419
0.0076566453
0.0055456125
0.0037242471
0.0021772053
0.0008884762
-0.0001679124
-0.0010188748
-0.0016890733
-0.0022009178
-0.0025745663
-0.0028279247
-0.0029766466
-0.0030341337
-0.0030115353
-0.0029177489
-0.0027594197
-0.0025409407
-0.0022644530
-0.0019298455
-0.0015323310
-0.0010373951
-0.0004649549
0.0001499814
0.0007773722
0.0013921423
0.0019741829
0.0025083515
0.0029844721
0.0033973352
0.0037479422
0.0040481361
0.0043164582
0.0045764163
0.0048564846
0.0051901039
0.0056156813
0.0061765902
0.0069211708
0.0079026563
0.0091774168
0.0108048684
0.0128493030
0.0153799788
0.0184711204
0.0221532723
0.0265133145
0.0317971940
0.0382027988
0.0458748448
0.0549048754
0.0653312617
0.0771392023
0.0902607236
0.1045746798
0.1199071897
0.1360335312
0.1526765829
0.1695060516
0.1861384720
0.2021410454
0.2171353098
0.2306124635
0.2420737646
0.2511181684
0.2574423271
0.2608405898
0.2612050024
0.2585253079
0.2528889462
0.2444810540
0.2335844650
0.2205176584
0.2056853154
0.1896441517
0.1729028828
0.1559183782
0.1390956607
0.1227879071
0.1072964474
0.0928698228
0.0796990461
0.0679211654
0.0575771145
0.0484768986
0.0407580309
0.0344598995
0.0294376094
0.0253619826
0.0217195704
0.0178134676
0.0127638216
0.0055066182
-0.0052064396
-0.0208080986
-0.0424996845
-0.0681565218
-0.0937280488
-0.1142592512
-0.1238906612
-0.1158583583
-0.0824939690
-0.0161044307
0.0869956971
0.2265390053
0.3959916363
0.5823670851
0.7662236900
0.9216628361
1.0167748377
1.0324009860
0.9725471591
0.8472221389
0.6714854528
0.4654473743
0.2542689224
0.0672482252
-0.0837808098
-0.1981517807
-0.2753061707
-0.3168073278
-0.3263404643
-0.3097126572
-0.2748528483
-0.2318118436
-0.1901436214
-0.1530115269
-0.1219775932
-0.0978244987
-0.0805552769
-0.0693936932
-0.0627867961
-0.0584042999
-0.0545368691
-0.0511005747
-0.0478103311
-0.0444280650
-0.0407627144
-0.0366702294
-0.0320535720
-0.0268628478
-0.0210955095
-0.0147850132
-0.0078923169
-0.0003550339
0.0078741792
0.0168308224
0.0265385522
0.0370091816
0.0482426801
0.0602271739
0.0729389456
0.0863424345
0.1003902363
0.1150231033
0.1301702504
0.1457517608
0.1616772918
0.1778446693
0.1941398760
0.2104873164
0.2268336458
0.2429610378
0.2586590937
0.2737329115
0.2880030863
0.3013057097
0.3134923705
0.3244301542
0.3340016431
0.3421049165
0.3486535503
0.3535766176
0.3568186880
0.3583398282
0.3581156016
0.3561370686
0.3524107862
0.3469588086
0.3398186865
0.3310307071
0.3205987640
0.3086907040
0.2954990401
0.2812091729
0.2659993914
0.2500408721
0.2334976796
0.2165267666
0.1992779732
0.1818939156
0.1645096339
0.1472529372
0.1302445221
0.1135979735
0.0974197638
0.0818092537
0.0668586916
0.0526532138
0.0392708446
0.0267824962
0.0152561520
0.0047297030
-0.0048250552
-0.0134408778
-0.0211513276
-0.0279981303
-0.0340283517
-0.0392892673
-0.0438282740
-0.0476928897
-0.0509307537
-0.0535896264
-0.0557173895
-0.0573620460
-0.0585717199
-0.0593946568
-0.0598792231
-0.0600739068
-0.0600273169
-0.0597881838
-0.0594053590
-0.0589278153
-0.0584046467
-0.0578850684
-0.0574136431
-0.0570021613
-0.0566690600
-0.0564354210
-0.0563217667
-0.0563472165
-0.0565188498
-0.0568348989
-0.0572928532
-0.0578896426
-0.0586216375
-0.0594846490
-0.0604739288
-0.0615841691
-0.0628095028
-0.0641433136
-0.0655771353
-0.0671014048
-0.0687059980
-0.0703802311
-0.0721128613
-0.0738920860
-0.0757055434
-0.0775403123
-0.0793829120
-0.0812193025
-0.0830348843
-0.0848028555
-0.0864973133
-0.0881187850
-0.0896607345
-0.0911133705
-0.0924626916
-0.0936867182
-0.0947553837
-0.0956305339
-0.0962659279
-0.0966072372
-0.0965920463
-0.0961498524
-0.0952020656
-0.0936620086
-0.0914349172
-0.0884179396
-0.0845001372
-0.0795624840
-0.0734915015
-0.0662120859
-0.0576401656
-0.0477302331
-0.0364796168
-0.0239284806
-0.0101598245
0.0047005156
0.0204838684
0.0369785238
0.0539261215
0.0710220663
0.0879188087
0.1042259630
0.1195103078
0.1332957859
0.1450713790
0.1545531916
0.1615442068
0.1658593998
0.1673897306
0.1661026743
0.1620432026
0.1553338013
0.1461744699
0.1348427218
0.1216935843
0.1071595986
0.0916723457
0.0755790064
0.0592929219
0.0431777798
0.0275444043
0.0126507563
-0.0012978250
-0.0141434183
-0.0257755793
-0.0361364972
-0.0452212243
-0.0531109223
-0.0598533665
-0.0655316698
-0.0703606598
-0.0746868784
-0.0789885820
-0.0838757415
-0.0900900420
-0.0985048834
-0.1101253799
-0.1260883601
-0.1476794849
-0.1742393276
-0.2012259336
-0.2235539833
-0.2359271773
-0.2328382363
-0.2085689010
-0.1571899324
-0.0725788913
0.0487331870
0.2025356257
0.3796974885
0.5666888609
0.7455809341
0.8940460048
0.9854940493
1.0038539928
0.9436059820
0.8079385272
0.6148876123
0.3973373663
0.1960920816
0.0199577027
-0.1225535911
-0.2255171420
-0.2878199964
-0.3131559564
-0.3073373874
-0.2796192997
-0.2402201833
-0.1972363645
-0.1566420067
-0.1222891094
-0.0959075092
-0.0771045446
-0.0637193470
-0.0541634614
-0.0473730373
-0.0424213800
-0.0385189504
-0.0350133649
-0.0313893953
-0.0272689692
-0.0224111696
-0.0167122352
-0.0102055601
-0.0030616941
0.0044363488
0.0124321189
0.0210906076
0.0304543357
0.0405531710
0.0514043281
0.0630123686
0.0753692009
0.0884540806
0.1022336098
0.1166617379
0.1316797609
0.1472164004
0.1631910874
0.1795151564
0.1961062596
0.2129588642
0.2298824843
0.2466608685
0.2630903620
0.2789799076
0.2941510450
0.3084379141
0.3216874389
0.3337594286
0.3445263144
0.3538731248
0.3616974851
0.3679096179
0.3724323431
0.3752010775
0.3761638352
0.3752812273
0.3725264620
0.3678853449
0.3612578457
0.3526590015
0.3423078808
0.3304163247
0.3171883907
0.3028200181
0.2874989976
0.2714049715
0.2547094335
0.2375757290
0.2201590549
0.2026064594
0.1850568424
0.1676409553
0.1504814011
0.1336926341
0.1173809604
0.1016445373
0.0865733739
0.0722493306
0.0587461196
0.0461293043
0.0344562998
0.0237763728
0.0141322616
0.0055626990
-0.0019715810
-0.0085268148
-0.0141618687
-0.0189414237
-0.0229288452
-0.0261854291
-0.0287704028
-0.0307409240
-0.0321520819
-0.0330568960
-0.0335063173
-0.0335492288
-0.0332329056
-0.0326036719
-0.0317059488
-0.0305820882
-0.0292723733
-0.0278150178
-0.0262461664
-0.0245998950
-0.0229082100
-0.0212010490
-0.0195062803
-0.0178497034
-0.0162550485
-0.0147439766
-0.0133360194
-0.0120422325
-0.0108596199
-0.0097818019
-0.0088003297
-0.0079046857
-0.0070822828
-0.0063184652
-0.0055965076
-0.0048897008
-0.0041775291
-0.0034741187
-0.0027908884
-0.0021351637
-0.0015101756
-0.0009150619
-0.0003448662
0.0002094616
0.0007610655
0.0013271833
0.0019291465
0.0025923806
0.0033464048
0.0042248324
0.0052653700
0.0065097882
0.0079990917
0.0097682318
0.0118549815
0.0143012079
0.0171528719
0.0204600283
0.0242629472
0.0285387612
0.0334852857
0.0393138955
0.0461950579
0.0542592398
0.0635959887
0.0742536337
0.0862392856
0.0995188371
0.1140169625
0.1296171181
0.1461615418
0.1634512534
0.1812460542
0.1992645276
0.2172094049
0.2347228717
0.2512280677
0.2662042785
0.2792121277
0.2898904846
0.2979559499
0.3032028556
0.3055032652
0.3048069739
0.3011415081
0.2946121256
0.2853996925
0.2737004263
0.2599648294
0.2447111022
0.2284159952
0.2115148084
0.1944013918
0.1774281452
0.1609060183
0.1451045105
0.1302516712
0.1165340994
0.1040969440
0.0929482364
0.0829742060
0.0742855967
0.0668675534
0.0605650574
0.0550788406
0.0499645967
0.0446329818
0.0383496140
0.0302350734
0.0192649025
0.0042696058
-0.0161102278
-0.0469997697
-0.0828020124
-0.1129900867
-0.1288807366
-0.1236343184
-0.0922548006
-0.0315897644
0.0596695969
0.1809884775
0.3299884590
0.5024475111
0.6909166788
0.8682437398
1.0044094519
1.0775759090
1.0733362896
0.9886258505
0.8342492220
0.6371417464
0.4341256987
0.2477503608
0.0949265504
-0.0156431804
-0.0820438721
-0.1095595581
-0.1053643013
-0.0778322996
-0.0365378861
0.0077526430
0.0463399194
0.0772458538
0.1000944614
0.1154393753
0.1247638468
0.1304788419
0.1347316276
0.1381002565
0.1410690695
0.1440038689
0.1471519192
0.1506481292
0.1545293304
0.1587836023
0.1635228332
0.1688267995
0.1747629279
0.1813884975
0.1887506401
0.1968863400
0.2058224343
0.2155756215
0.2261525518
0.2375623156
0.2500191473
0.2634484413
0.2776504647
0.2924326781
0.3076097361
0.3230034869
0.3384429724
0.3537644283
0.3688112840
0.3834341627
0.3974908811
0.4108464498
0.4233677774
0.4349092175
0.4453277147
0.4544874071
0.4622596268
0.4685228994
0.4731629443
0.4760726748
0.4771521976
0.4763088134
0.4734547721
0.4684291540
0.4613550562
0.4524819921
0.4420478758
0.4302790218
0.4173901449
0.4035843607
0.3890531852
0.3739765348
0.3585227266
0.3428484780
0.3270989071
0.3114075323
0.2958962727
0.2806778246
0.2658632803
0.2515547599
0.2378427841
0.2248062739
0.2125125510
0.2010173374
0.1903647558
0.1805873293
0.1717059815
0.1637366762
0.1566534483
0.1503884007
0.1448758891
0.1400531270
0.1358601862
0.1322399970
0.1291383476
0.1265038847
0.1242881129
0.1224453955
0.1209329537
0.1197108669
0.1187420730
0.1179923678
0.1174303084
0.1170268477
0.1167556601
0.1165932783
0.1165190933
0.1165153540
0.1165671679
0.1166625006
0.1167921758
0.1169498757
0.1171321404
0.1173383686
0.1175708170
0.1178317675
0.1181161080
0.1184187872
0.1187359676
0.1190650069
0.1194044583
0.1197540704
0.1201147870
0.1204887474
0.1208792863
0.1212909337
0.1217294150
0.1222011483
0.1227110554
0.1232643557
0.1238674635
0.1245279883
0.1252547350
0.1260577041
0.1269349155
0.1278472937
0.1288874332
0.1301663357
0.1317924736
0.1338719410
0.1365080251
0.1398011693
0.1438489730
0.1487461912
0.1545847352
0.1614536721
0.1694392249
0.1786247727
0.1890908503
0.2009151488
0.2141735538
0.2291622355
0.2456087828
0.2628753464
0.2803725940
0.2975594995
0.3139433427
0.3290797093
0.3425724909
0.3540738848
0.3632843942
0.3699528284
0.3738763023
0.3749002367
0.3729183583
0.3678726999
0.3597535997
0.3486391676
0.3350227850
0.3195682037
0.3028793360
0.2854987846
0.2679078421
0.2505264918
0.2337134070
0.2177659513
0.2029201786
0.1893514496
0.1771780483
0.1664587274
0.1571897966
0.1491978936
0.1424124103
0.1366725273
0.1315555770
0.1263770439
0.1201905640
0.1117879242
0.0996986735
0.0824288152
0.0598212997
0.0335121109
0.0072051289
-0.0133105930
-0.0201660605
-0.0054500029
0.0400150292
0.1230079942
0.2450529187
0.4024188970
0.5870560924
0.7841907396
0.9537252206
1.0633876887
1.0944669520
1.0418164961
0.9138545071
0.7325638723
0.5312860788
0.3365487214
0.1658214003
0.0310832145
-0.0612110356
-0.1101308475
-0.1202700171
-0.1017466388
-0.0667362144
-0.0239404130
0.0189587647
0.0565525232
0.0857068816
0.1055626731
0.1175355453
0.1252388629
0.1309616736
0.1351983283
0.1386679495
0.1419231140
0.1453577904
0.1492030925
0.1535226271
0.1582343275
0.1634132363
0.1691555291
0.1755199444
0.1825565893
0.1903069393
0.1988038383
0.2080717170
0.2181271876
0.2289784203
0.2406296865
0.2531484030
0.2664732288
0.2804884525
0.2950740557
0.3101057137
0.3254547948
0.3409883605
0.3565691658
0.3720556589
0.3873019811
0.4021575390
0.4164630557
0.4300523851
0.4427550423
0.4543962354
0.4647968659
0.4737735285
0.4811385113
0.4866997955
0.4902780790
0.4918290787
0.4913829441
0.4889831232
0.4846860061
0.4785609247
0.4706901525
0.4611689050
0.4501053395
0.4376205551
0.4238485927
0.4089364348
0.3930440062
0.3763441730
0.3590227435
0.3412784676
0.3233230369
0.3053810843
0.2876901840
0.2704901112
0.2538720989
0.2378993985
0.2226445208
0.2081694994
0.1945258901
0.1817547712
0.1698867434
0.1589419041
0.1489297159
0.1398491039
0.1316885157
0.1244259213
0.1180288133
0.1124542064
0.1076486381
0.1035481681
0.1000783786
0.0971543743
0.0946809893
0.0926182129
0.0909516399
0.0896365546
0.0886307451
0.0878945795
0.0873911994
0.0870865240
0.0869492509
0.0869508554
0.0870655906
0.0872704879
0.0875453563
0.0878727831
0.0882381331
0.0886295496
0.0890379533
0.0894570432
0.0898832961
0.0903159764
0.0907550912
0.0911928863
0.0916204306
0.0920300885
0.0924155189
0.0927716762
0.0930948096
0.0933824633
0.0936336324
0.0938511029
0.0940409672
0.0942106697
0.0943689501
0.0945258431
0.0946926783
0.0948820804
0.0951079693
0.0953855597
0.0957313616
0.0961631133
0.0966890007
0.0973190042
0.0981494281
0.0992841011
0.1008267119
0.1028808100
0.1055498047
0.1089369661
0.1131454242
0.1182781696
0.1244380532
0.1317277861
0.1402499399
0.1501067991
0.1613977110
0.1742757869
0.1887793847
0.2045175215
0.2210821159
0.2380709489
0.2550876648
0.2717417700
0.2876486342
0.3024294894
0.3157114305
0.3271274152
0.3363162638
0.3429226595
0.3465971480
0.3469961378
0.3437698446
0.3370438272
0.3273982476
0.3153875116
0.3015296529
0.2863063332
0.2701628419
0.2535080965
0.2367147351
0.2201211377
0.2040314123
0.1887133851
0.1743985099
0.1612818687
0.1495221711
0.1392417547
0.1320337141
0.1302425864
0.1311084322
0.1321800676
0.1315751792
0.1279802319
0.1206494398
0.1094047267
0.0946357256
0.0772997791
0.0589219395
0.0415949683
0.0279793366
0.0213032250
0.0253625236
0.0445208319
0.0837094590
0.1484273286
0.2447384537
0.3792716664
0.5567425295
0.7480459527
0.9157764422
1.0321905799
1.0772624722
1.0387732757
0.9229400034
0.7531008022
0.5524453087
0.3444737147
0.1529967667
-0.0034604534
-0.1223223051
-0.2023657033
-0.2450446970
-0.2545874990
-0.2379964850
-0.2048647391
-0.1641494764
-0.1223782886
-0.0843865334
-0.0532984370
-0.0305270157
-0.0157714623
-0.0070165406
-0.0010663668
0.0030583047
0.0059772701
0.0082929402
0.0104821507
0.0128961614
0.0157606568
0.0191757457
0.0231159403
0.0274950274
0.0324267070
0.0379784637
0.0441997069
0.0511312365
0.0588052428
0.0672453064
0.0764663985
0.0864748808
0.0972685053
0.1088364145
0.1211591413
0.1342086091
0.1479498935
0.1624739185
0.1777190571
0.1935023518
0.2096468607
0.2259816578
0.2423418325
0.2585684902
0.2745087516
0.2900157533
0.3049486474
0.3191726018
0.3325587999
0.3449844409
0.3563327397
0.3664929265
0.3753602477
0.3828359649
0.3888273557
0.3932477130
0.3960163456
0.3970585781
0.3963057503
0.3936869628
0.3889839329
0.3822897358
0.3738212833
0.3637825178
0.3523684713
0.3397656336
0.3261519527
0.3116968346
0.2965611432
0.2808972006
0.2648487868
0.2485511401
0.2321309599
0.2157070752
0.1993912550
0.1832869239
0.1674889648
0.1520837185
0.1371489839
0.1227540178
0.1089595353
0.0958177092
0.0833721707
0.0716580087
0.0607017704
0.0505214609
0.0411265696
0.0325200407
0.0247017070
0.0176545661
0.0113251214
0.0056588928
0.0006036203
-0.0038907353
-0.0078719924
-0.0113857493
-0.0144753832
-0.0171820511
-0.0195446891
-0.0216000130
-0.0233825177
-0.0249244779
-0.0262559473
-0.0274047593
-0.0283965265
-0.0292546412
-0.0300002747
-0.0306523781
-0.0312276817
-0.0317406952
-0.0322037078
-0.0326267793
-0.0330168029
-0.0333766740
-0.0337068711
-0.0339937546
-0.0342044533
-0.0343510104
-0.0344468443
-0.0345033357
-0.0345298271
-0.0345336228
-0.0345199893
-0.0344926498
-0.0344550442
-0.0344089632
-0.0343541596
-0.0342883481
-0.0342072053
-0.0341043697
-0.0339714421
-0.0337979848
-0.0335715224
-0.0332775412
-0.0328994896
-0.0324187781
-0.0318147923
-0.0310670659
-0.0301576814
-0.0290672607
-0.0277743881
-0.0262556094
-0.0244854328
-0.0224363282
-0.0200787275
-0.0173810245
-0.0143476328
-0.0109080313
-0.0068526994
-0.0020006214
0.0037976630
0.0106600586
0.0186729150
0.0278910265
0.0383376319
0.0500044148
0.0628515035
0.0768074707
0.0917693341
0.1076025557
0.1241410425
0.1411871486
0.1585435172
0.1757971903
0.1924070745
0.2078880754
0.2218115737
0.2338054253
0.2435539616
0.2507979889
0.2553347889
0.2570181183
0.2557582093
0.2515221369
0.2443285129
0.2342840233
0.2218051091
0.2073405895
0.1913174029
0.1741406065
0.1561933768
0.1378370095
0.1194109190
0.1012326391
0.0835978226
0.0667802412
0.0510317904
0.0364558112
0.0229878485
0.0107989379
-0.0000349377
-0.0095463664
-0.0178765079
-0.0252750928
-0.0321004234
-0.0388193728
-0.0460073859
-0.0543484784
-0.0646352376
-0.0777688219
-0.0947589612
-0.1167239564
-0.1445548751
-0.1745150713
-0.1999501559
-0.2145466064
-0.2123824373
-0.1879272005
-0.1360419852
-0.0519794177
0.0691093368
0.2310854378
0.4156071968
0.6010987329
0.7677768642
0.8976534618
0.9745354493
0.9840248028
0.9141263275
0.7737793527
0.5911768340
0.3910049219
0.1935174071
0.0145355313
-0.1345536928
-0.2467966790
-0.3177099288
-0.3502697637
-0.3537064294
-0.3362845844
-0.3052558762
-0.2668589411
-0.2263194045
-0.1878498805
-0.1546499725
-0.1289062727
-0.1112768265
-0.0992275970
-0.0910926783
-0.0856020647
-0.0817004326
-0.0785471403
-0.0755162279
-0.0721964177
-0.0683911137
-0.0641184019
-0.0595937818
-0.0547339296
-0.0493809103
-0.0434772614
-0.0369723496
-0.0298223698
-0.0219903455
-0.0134461290
-0.0041664011
0.0058653290
0.0166587231
0.0282166148
0.0405350089
0.0536030817
0.0674064232
0.0820079526
0.0973422563
0.1132717593
0.1296582235
0.1463643564
0.1632538115
0.1801911883
0.1970420318
0.2136728332
0.2299510293
0.2457450029
0.2609240827
0.2753586048
0.2889209929
0.3014856224
0.3129278489
0.3231239740
0.3319512451
0.3392878554
0.3450129440
0.3490065959
0.3511477401
0.3513610413
0.3497043640
0.3462562447
0.3411001217
0.3343246418
0.3260246491
0.3163002320
0.3052563804
0.2930029863
0.2796548435
0.2653316475
0.2501579957
0.2342633873
0.2177822232
0.2008538065
0.1836223416
0.1662369352
0.1488515955
0.1316252328
0.1147216589
0.0983095876
0.0825375482
0.0674259324
0.0530097342
0.0393245754
0.0263996698
0.0142578232
0.0029154336
-0.0076175089
-0.0173372934
-0.0262460021
-0.0343519424
-0.0416698294
-0.0482207861
-0.0540323437
-0.0591384409
-0.0635794246
-0.0674020496
-0.0706594784
-0.0734112816
-0.0757234554
-0.0776548146
-0.0792152742
-0.0804369483
-0.0813534123
-0.0819964242
-0.0823959250
-0.0825800387
-0.0825750723
-0.0824055157
-0.0820940418
-0.0816615064
-0.0811269483
-0.0805075892
-0.0798187705
-0.0790736747
-0.0782835529
-0.0774578393
-0.0766041506
-0.0757282869
-0.0748342310
-0.0739241487
-0.0729983889
-0.0720554832
-0.0710879708
-0.0700624337
-0.0689905536
-0.0678922786
-0.0667848110
-0.0656826077
-0.0645973799
-0.0635380932
-0.0625109676
-0.0615194777
-0.0605643521
-0.0596435742
-0.0587523815
-0.0578832662
-0.0570259746
-0.0561677405
-0.0552944706
-0.0543898600
-0.0534348593
-0.0524076732
-0.0512837609
-0.0500358363
-0.0486338673
-0.0470450764
-0.0452339404
-0.0431621907
-0.0407888093
-0.0380694285
-0.0350156315
-0.0315408179
-0.0274318708
-0.0225084179
-0.0166233912
-0.0096630267
-0.0015468645
0.0077722510
0.0183081716
0.0300414447
0.0429193139
0.0568557184
0.0717314298
0.0873948574
0.1036615038
0.1203135687
0.1371055703
0.1537605133
0.1697959424
0.1847378336
0.1981695826
0.2097320046
0.2191233342
0.2260992258
0.2304727529
0.2321144090
0.2309521068
0.2269711785
0.2202085736
0.2107692767
0.1990200959
0.1853640438
0.1701904146
0.1538747843
0.1367790103
0.1192512318
0.1016258695
0.0842237544
0.0673530104
0.0513085203
0.0363363493
0.0222908776
0.0093916326
-0.0021001343
-0.0120419069
-0.0204099046
-0.0272990822
-0.0329231299
-0.0376144738
-0.0418245433
-0.0461244088
-0.0512040670
-0.0578722502
-0.0670564258
-0.0798027970
-0.1031209254
-0.1388004256
-0.1774782849
-0.2110388449
-0.2326607190
-0.2368167919
-0.2192742199
-0.1770946520
-0.1086359918
-0.0135514608
0.1072114389
0.2514109336
0.4155109781
0.5946812559
0.7778715742
0.9319283832
1.0323479806
1.0635748850
1.0185462907
0.9010853903
0.7266738512
0.5235764675
0.3228102528
0.1425824539
-0.0034782102
-0.1086864960
-0.1719550934
-0.1986820481
-0.1955538327
-0.1700372106
-0.1303792355
-0.0856072514
-0.0449343207
-0.0118902385
0.0135832400
0.0320195901
0.0444315261
0.0523110008
0.0576292054
0.0621855550
0.0663545057
0.0704400063
0.0746909915
0.0792990485
0.0843983925
0.0900657538
0.0963204685
0.1031399125
0.1105764266
0.1186942294
0.1275415382
0.1371539650
0.1475545160
0.1587535922
0.1707489889
0.1835258959
0.1970568975
0.2113021741
0.2262116930
0.2417243821
0.2577665915
0.2742623137
0.2912031283
0.3084179376
0.3256989366
0.3428475628
0.3596744964
0.3759996604
0.3916522204
0.4064705849
0.4203024050
0.4330045745
0.4444432300
0.4544937506
0.4630407584
0.4699781180
0.4752089369
0.4786455652
0.4802095956
0.4798318637
0.4772626889
0.4724246469
0.4655551423
0.4568808982
0.4466182036
0.4349742675
0.4221472496
0.4083262608
0.3936913629
0.3784135688
0.3626548423
0.3465680983
0.3302972025
0.3139769717
0.2977332242
0.2816831984
0.2659353400
0.2505890481
0.2357346728
0.2214535152
0.2078178276
0.1948908130
0.1827266255
0.1713703703
0.1608581036
0.1512168324
0.1424645149
0.1346099612
0.1276496785
0.1215405054
0.1162157883
0.1116109803
0.1076640951
0.1043157069
0.1015089506
0.0991895215
0.0973056757
0.0958082297
0.0946505607
0.0937886064
0.0931808650
0.0927883955
0.0925748174
0.0925063106
0.0925516157
0.0926820341
0.0928714273
0.0930962178
0.0933353885
0.0935704828
0.0937856049
0.0939674195
0.0941053843
0.0941959647
0.0942421902
0.0942516440
0.0942251374
0.0941593976
0.0940523222
0.0939029793
0.0937116075
0.0934796157
0.0932095835
0.0929052607
0.0925715753
0.0922147522
0.0918422942
0.0914628776
0.0910863494
0.0907237269
0.0903871979
0.0900901208
0.0898470244
0.0896736078
0.0895867409
0.0896044636
0.0897459867
0.0900315359
0.0904722239
0.0910622670
0.0918945599
0.0930759503
0.0947103527
0.0968987485
0.0997391862
0.1033267810
0.1077537151
0.1131092378
0.1194796650
0.1269483797
0.1355958320
0.1454995385
0.1567340832
0.1693718703
0.1835877507
0.1991775279
0.2157171330
0.2327953073
0.2500136017
0.2669863773
0.2833408049
0.2987168651
0.3127673590
0.3251581811
0.3355683508
0.3436897136
0.3492269249
0.3518974500
0.3514315641
0.3475436320
0.3403144497
0.3303141007
0.3180925913
0.3041610983
0.2889919542
0.2730180869
0.2566328493
0.2401907157
0.2240073310
0.2083595107
0.1934852408
0.1795836782
0.1668151502
0.1553011548
0.1451243606
0.1363286068
0.1289281401
0.1228408017
0.1176962481
0.1130079335
0.1081923716
0.1025689294
0.0953598269
0.0856901370
0.0725877856
0.0549835517
0.0317814776
0.0045896386
-0.0212301368
-0.0396956108
-0.0444211642
-0.0286177961
0.0149068761
0.0926880083
0.2075097080
0.3579514340
0.5356475849
0.7251769787
0.9040628531
1.0427993517
1.1129474264
1.1050421580
1.0210118029
0.8722396900
0.6795625736
0.4732763242
0.2862804131
0.1323479950
0.0190875167
-0.0508434970
-0.0798277572
-0.0752882112
-0.0475016000
-0.0070788010
0.0362392726
0.0755609091
0.1068447242
0.1288985477
0.1433732233
0.1529709440
0.1591676891
0.1633141355
0.1664743024
0.1694255507
0.1726585837
0.1763774466
0.1804995266
0.1849385131
0.1898785907
0.1953816219
0.2015031996
0.2082924828
0.2157921964
0.2240386315
0.2330616453
0.2428874176
0.2536559344
0.2653666004
0.2779177713
0.2912034107
0.3051130893
0.3195319855
0.3343408849
0.3494161807
0.3646298736
0.3798495716
0.3949384904
0.4097554529
0.4241548896
0.4379868384
0.4510969447
0.4633264612
0.4745122396
0.4844860680
0.4930742063
0.5000984120
0.5053760502
0.5087200933
0.5098989734
0.5086920064
0.5052523417
0.4997645983
0.4924101134
0.4833669419
0.4728098569
0.4609099412
0.4478336864
0.4337440391
0.4188006644
0.4031599450
0.3869749818
0.3703955935
0.3535683168
0.3366364063
0.3197398347
0.3030152926
0.2865961885
0.2706126393
0.2551904417
0.2404501503
0.2265088201
0.2134802243
0.2014748539
0.1905998100
0.1808615948
0.1721680367
0.1644613015
0.1576845823
0.1517820991
0.1466990988
0.1423818554
0.1387776700
0.1358348704
0.1335028118
0.1317318759
0.1304734720
0.1296800358
0.1293050304
0.1293029458
0.1296292989
0.1302406337
0.1310945212
0.1321495505
0.1333638821
0.1346936347
0.1361059123
0.1375907126
0.1391298805
0.1407057317
0.1423013966
0.1439008203
0.1454887626
0.1470507977
0.1485733149
0.1500435179
0.1514494791
0.1527803701
0.1540262703
0.1551780734
0.1562274882
0.1571670379
0.1579900605
0.1586907085
0.1592639491
0.1597068777
0.1600408368
0.1602499816
0.1603086851
0.1602053783
0.1599499597
0.1595627851
0.1590728142
0.1585176106
0.1579433419
0.1574047794
0.1569652987
0.1566968789
0.1566801034
0.1570041593
0.1577668377
0.1590745336
0.1610009201
0.1635728181
0.1670703542
0.1717433666
0.1777814468
0.1853139400
0.1944099448
0.2050783135
0.2172676516
0.2308663183
0.2457024263
0.2615438296
0.2780916556
0.2949696525
0.3117385230
0.3279036397
0.3430139800
0.3565144253
0.3678854051
0.3767119547
0.3826837151
0.3855949330
0.3853444605
0.3819357558
0.3754769995
0.3661820108
0.3543697527
0.3404637985
0.3249923271
0.3085881231
0.2918692012
0.2751255648
0.2587651225
0.2431383459
0.2285198005
0.2151081453
0.2030261359
0.1923245929
0.1829902259
0.1749360175
0.1679990440
0.1619404754
0.1564455750
0.1513637656
0.1465591137
0.1391551384
0.1270354699
0.1093214902
0.0863723335
0.0597848861
0.0323937864
0.0080668237
-0.0089211572
-0.0056705380
0.0288231274
0.1007253345
0.2113626280
0.3572226019
0.5299538991
0.7163673920
0.8945160869
1.0281704531
1.0903213632
1.0687958521
0.9662585490
0.8002120538
0.6016062135
0.3979639568
0.2103462653
0.0541443010
-0.0615678605
-0.1340332299
-0.1668119045
-0.1664674761
-0.1418378524
-0.1041580427
-0.0623164274
-0.0228394424
0.0101084507
0.0347247650
0.0515689877
0.0630166120
0.0707529855
0.0760006379
0.0797929512
0.0829721526
0.0861893145
0.0899023631
0.0943705683
0.0996602795
0.1056466910
0.1120751000
0.1191113162
0.1268634898
0.1353711902
0.1446638573
0.1547608016
0.1656712044
0.1773941171
0.1899184621
0.2032230323
0.2172764910
0.2320376396
0.2475653803
0.2638008046
0.2805540794
0.2976389875
0.3148729274
0.3320769136
0.3490755764
0.3656971619
0.3817735321
0.3971437138
0.4116654246
0.4252040004
0.4376283929
0.4488111694
0.4586285133
0.4669602237
0.4736897157
0.4787040200
0.4818937835
0.4831532685
0.4823773717
0.4792470057
0.4737798802
0.4662285276
0.4568364567
0.4458381049
0.4334588383
0.4199149517
0.4054136687
0.3901531413
0.3743224506
0.3581016061
0.3416615461
0.3251641377
0.3087573830
0.2925572411
0.2766637272
0.2611677835
0.2461512814
0.2316870206
0.2178387297
0.2046610659
0.1921996153
0.1804908924
0.1695623406
0.1594323320
0.1501101674
0.1415960761
0.1338812165
0.1269472815
0.1207457592
0.1151930829
0.1102054245
0.1057016578
0.1016033581
0.0978348023
0.0943229690
0.0909975383
0.0877908922
0.0846436802
0.0815293748
0.0784342922
0.0753474579
0.0722605991
0.0691681446
0.0660672248
0.0629576718
0.0598420193
0.0567255027
0.0536160588
0.0505243264
0.0474636460
0.0444501087
0.0415026004
0.0386427195
0.0358950748
0.0332875587
0.0308382651
0.0285638744
0.0264823313
0.0246128449
0.0229758886
0.0215932003
0.0204877821
0.0196791697
0.0191592032
0.0189100339
0.0189150569
0.0191589316
0.0196275817
0.0203081954
0.0211892253
0.0222603882
0.0235126653
0.0249383023
0.0265308091
0.0282849602
0.0301967941
0.0322636140
0.0344694637
0.0368415664
0.0394678599
0.0424352238
0.0458288060
0.0497320232
0.0542265605
0.0593923715
0.0653076785
0.0720489722
0.0796936157
0.0883353112
0.0980736922
0.1090066881
0.1212449572
0.1349062740
0.1497242684
0.1653579219
0.1814633384
0.1976937441
0.2136994874
0.2291280388
0.2436239913
0.2568288750
0.2683807775
0.2779148005
0.2850631686
0.2894552282
0.2907174481
0.2884943211
0.2829242093
0.2744459664
0.2634896804
0.2504748786
0.2358105264
0.2198941398
0.2031056597
0.1858111384
0.1683660467
0.1511152942
0.1343932292
0.1185236384
0.1038197477
0.0905842213
0.0795427157
0.0707954905
0.0635893810
0.0572383391
0.0511246003
0.0446986831
0.0374793897
0.0290538056
0.0190772996
0.0072735240
-0.0065655856
-0.0225798102
-0.0408406474
-0.0613513116
-0.0840467334
-0.1082474893
-0.1254767887
-0.1234526528
-0.0931702771
-0.0290838665
0.0708933567
0.2053891530
0.3695722655
0.5552232859
0.7455097642
0.9047450280
1.0042650702
1.0278568084
0.9717580850
0.8446577428
0.6676314270
0.4666471068
0.2647061212
0.0808741426
-0.0715281178
-0.1849249104
-0.2574854470
-0.2928371831
-0.2950910862
-0.2736931733
-0.2385249846
-0.1976130987
-0.1571287863
-0.1213881668
-0.0928524323
-0.0721278501
-0.0575276905
-0.0463882970
-0.0379987179
-0.0317811855
-0.0272056073
-0.0237895649
-0.0210983150
-0.0187447888
-0.0163895921
-0.0137410055
-0.0105549843
-0.0066351584
-0.0018328323
0.0039530148
0.0107757288
0.0186409813
0.0275067689
0.0372834137
0.0478335632
0.0589721900
0.0706393758
0.0831172066
0.0963705114
0.1103371837
0.1249468398
0.1401208187
0.1557721823
0.1718057155
0.1881179258
0.2045970438
0.2211230227
0.2375675387
0.2537939909
0.2696574871
0.2850047426
0.2996741377
0.3134957753
0.3262914811
0.3378748035
0.3480520742
0.3567027029
0.3637516485
0.3691191052
0.3727438661
0.3745833229
0.3746133941
0.3728276022
0.3692373402
0.3638725836
0.3567819060
0.3480324801
0.3377100769
0.3259190664
0.3127824168
0.2984416954
0.2830570677
0.2668072982
0.2498897499
0.2325203844
0.2149042090
0.1971161435
0.1793002591
0.1616022685
0.1441541156
0.1270739749
0.1104662518
0.0944215826
0.0790168343
0.0643151052
0.0503657240
0.0372045918
0.0248593913
0.0133485477
0.0026768481
-0.0071646899
-0.0161988176
-0.0244620555
-0.0319859561
-0.0387637094
-0.0448398414
-0.0502611920
-0.0550722158
-0.0593149816
-0.0630291719
-0.0662520676
-0.0690185516
-0.0713611211
-0.0733098879
-0.0748925779
-0.0761345320
-0.0770587052
-0.0776856672
-0.0780336022
-0.0781183088
-0.0779532001
-0.0775498327
-0.0769275612
-0.0761125478
-0.0751288987
-0.0739980721
-0.0727299827
-0.0713420599
-0.0698570862
-0.0682968304
-0.0666820473
-0.0650324777
-0.0633668482
-0.0617028717
-0.0600572471
-0.0584456592
-0.0568827788
-0.0553822630
-0.0539567546
-0.0526178826
-0.0513762620
-0.0502414938
-0.0492221650
-0.0483258487
-0.0475591040
-0.0469274760
-0.0464349803
-0.0460727155
-0.0458188374
-0.0456499671
-0.0455417115
-0.0454686638
-0.0454044031
-0.0453214945
-0.0451914893
-0.0450087454
-0.0447615678
-0.0443021103
-0.0434836016
-0.0421693264
-0.0402326514
-0.0375570305
-0.0340359743
-0.0295730485
-0.0240818734
-0.0174861245
-0.0097195318
-0.0007258806
0.0095409892
0.0211171827
0.0340287503
0.0482912913
0.0640475716
0.0810357059
0.0986902202
0.1164878429
0.1339475045
0.1506303381
0.1661396788
0.1801210640
0.1922622336
0.2022931296
0.2099858963
0.2151548804
0.2176566309
0.2173898988
0.2142956377
0.2083570034
0.1995972449
0.1882101986
0.1747203168
0.1596509955
0.1434791970
0.1266354498
0.1095038489
0.0924220554
0.0756815997
0.0595381322
0.0442139104
0.0298855655
0.0166832953
0.0046908634
-0.0060543999
-0.0155615983
-0.0238129018
-0.0306180855
-0.0365472996
-0.0422800274
-0.0484834370
-0.0558123803
-0.0649092866
-0.0764040736
-0.0909143226
-0.1090452999
-0.1313899565
-0.1592528228
-0.1931055917
-0.2217365060
-0.2346571348
-0.2238894212
-0.1839656829
-0.1119288300
-0.0073417986
0.1277088479
0.2886252104
0.4682990159
0.6564793853
0.8275889589
0.9495455528
1.0016184769
0.9751090454
0.8733505762
0.7117083913
0.5162391361
0.3132830253
0.1244305815
-0.0348769342
-0.1554821057
-0.2345113613
-0.2746782793
-0.2798256160
-0.2602883097
-0.2260570082
-0.1853218539
-0.1444724847
-0.1080980333
-0.0789869633
-0.0581074710
-0.0440323890
-0.0348094972
-0.0290174074
-0.0254414479
-0.0230736634
-0.0211128152
-0.0189643810
-0.0162405548
-0.0127602474
-0.0085490858
-0.0038394135
0.0012115857
0.0069157892
0.0133522304
0.0205822621
0.0286571987
0.0376183166
0.0474968537
0.0583140097
0.0700809460
0.0827987859
0.0964586141
0.1110414773
0.1265182381
0.1428609324
0.1601343066
0.1781634440
0.1967283697
0.2156167583
0.2346239332
0.2535528675
0.2722141830
0.2904261509
0.3080146916
0.3248133748
0.3406634191
0.3554136925
0.3689207121
0.3810486443
0.3916693045
0.4006621575
0.4079143171
0.4133205464
0.4167832577
0.4182125125
0.4175260213
0.4145998577
0.4092727553
0.4017232077
0.3921648947
0.3808248817
0.3679238766
0.3536737501
0.3382775354
0.3219294289
0.3048147896
0.2871101394
0.2689831629
0.2505927076
0.2320887838
0.2136125645
0.1952963857
0.1772637612
0.1596294396
0.1424993535
0.1259705985
0.1101314329
0.0950612778
0.0808307171
0.0675014976
0.0551265288
0.0437498830
0.0334067954
0.0241244528
0.0158820332
0.0086107118
0.0022412727
-0.0032931835
-0.0080572397
-0.0121131624
-0.0155209016
-0.0183380908
-0.0206200473
-0.0224197718
-0.0237879484
-0.0247729450
-0.0254208130
-0.0257752873
-0.0258777863
-0.0257674121
-0.0254809503
-0.0250528700
-0.0245153239
-0.0238981483
-0.0232288630
-0.0225326713
-0.0218324602
-0.0211488001
-0.0204999309
-0.0198977778
-0.0193424753
-0.0188229525
-0.0183282618
-0.0178653840
-0.0174401281
-0.0170567968
-0.0167181861
-0.0164255853
-0.0161787776
-0.0159760392
-0.0158141400
-0.0156883433
-0.0155923528
-0.0155179458
-0.0154551940
-0.0153926612
-0.0153174046
-0.0152149750
-0.0150694165
-0.0148632668
-0.0145775569
-0.0141918115
-0.0136840484
-0.0130307835
-0.0122093399
-0.0112016825
-0.0099892790
-0.0085863131
-0.0069777760
-0.0050019434
-0.0025066708
0.0006448114
0.0045738978
0.0093866077
0.0151735856
0.0220101009
0.0299560480
0.0390559462
0.0493389400
0.0608187984
0.0734939159
0.0873473116
0.1023466298
0.1185272344
0.1357919017
0.1535410044
0.1712017064
0.1882540626
0.2042310204
0.2187202905
0.2313680633
0.2418744580
0.2499924850
0.2555280456
0.2583399319
0.2583398275
0.2554923066
0.2498148344
0.2413777675
0.2302863937
0.2168554563
0.2016870641
0.1853449908
0.1683374244
0.1511171876
0.1340823447
0.1175762171
0.1018873825
0.0872496753
0.0738421868
0.0617892645
0.0511605128
0.0419707928
0.0341802217
0.0276921448
0.0223483503
0.0179344539
0.0145029847
0.0113559922
0.0070264465
0.0003324513
-0.0096182106
-0.0234280775
-0.0414100087
-0.0635871845
-0.0898258045
-0.1163418840
-0.1347786006
-0.1376213539
-0.1184747144
-0.0720624235
0.0057726067
0.1180682930
0.2667153008
0.4458654647
0.6354363984
0.8132136583
0.9564052037
1.0416413973
1.0478044523
0.9709425599
0.8215207605
0.6269776246
0.4223658395
0.2311959187
0.0716176479
-0.0466164186
-0.1204684990
-0.1550728276
-0.1573898981
-0.1353364028
-0.0977852328
-0.0545654502
-0.0158175162
0.0147381168
0.0373697210
0.0528328676
0.0624085173
0.0679030199
0.0715900934
0.0747692492
0.0777957484
0.0810021785
0.0846489566
0.0889211940
0.0939184472
0.0996645309
0.1061302976
0.1133695970
0.1214437073
0.1303962638
0.1402574460
0.1510439773
0.1627591254
0.1753927021
0.1889210631
0.2033071084
0.2185002819
0.2344365717
0.2510385101
0.2682982638
0.2861249663
0.3042854025
0.3225546379
0.3407162150
0.3585621536
0.3758929502
0.3925175787
0.4082534897
0.4229280953
0.4363844321
0.4484761630
0.4590654284
0.4680228458
0.4752275095
0.4805669913
0.4839373397
0.4852430804
0.4843787768
0.4811079987
0.4755637430
0.4679743554
0.4585605249
0.4475350172
0.4351024707
0.4214598227
0.4067963573
0.3912937057
0.3751258458
0.3584591026
0.3414521476
0.3242559996
0.3070140242
0.2898619336
0.2729280529
0.2563344994
0.2401962263
0.2246205341
0.2097070702
0.1955478288
0.1822271511
0.1698217252
0.1584005859
0.1480119000
0.1386163031
0.1301499155
0.1225516131
0.1157625434
0.1097261257
0.1043880509
0.0996962820
0.0956010534
0.0920548714
0.0890125141
0.0864310312
0.0842697443
0.0824902466
0.0810564033
0.0799343510
0.0790922717
0.0784992245
0.0781260102
0.0779457005
0.0779336387
0.0780674399
0.0783269909
0.0786944504
0.0791543334
0.0797041855
0.0803433343
0.0810658328
0.0818664691
0.0827407656
0.0836847688
0.0846946756
0.0857673171
0.0869002593
0.0880918029
0.0893409836
0.0906475718
0.0920120727
0.0934357263
0.0949205075
0.0964691260
0.0980843818
0.0997653127
0.1015097755
0.1033163549
0.1051843701
0.1071138755
0.1091045222
0.1111354707
0.1132381173
0.1154696628
0.1178923156
0.1205732911
0.1235848122
0.1270041089
0.1309134188
0.1353999865
0.1405560640
0.1464789107
0.1532707932
0.1610389855
0.1698957687
0.1799584314
0.1913492694
0.2043208922
0.2189503059
0.2347976590
0.2514315162
0.2684376518
0.2854154391
0.3019778277
0.3177513441
0.3323760913
0.3455057489
0.3568075731
0.3659623967
0.3726646292
0.3766222566
0.3775568415
0.3752035232
0.3693103849
0.3599362004
0.3477263471
0.3333392050
0.3173788483
0.3003950451
0.2828832572
0.2652846404
0.2479860445
0.2313200130
0.2155647834
0.2009436715
0.1876201073
0.1757002450
0.1652359051
0.1562246018
0.1486095435
0.1422785127
0.1369737107
0.1322026497
0.1272751604
0.1213054260
0.1132119825
0.1017177187
0.0853498757
0.0631268220
0.0370344410
0.0110419510
-0.0093474796
-0.0170966543
-0.0036429060
0.0382796452
0.1165462358
0.2352384615
0.3909188391
0.5726308063
0.7619490546
0.9335536909
1.0537692887
1.0986831112
1.0589725577
0.9399051632
0.7613385988
0.5573615301
0.3593136365
0.1852662005
0.0479502865
-0.0461040879
-0.0965679521
-0.1093120610
-0.0930066519
-0.0581933678
-0.0157824069
0.0260567109
0.0618951472
0.0890447450
0.1075580287
0.1199541217
0.1282755176
0.1338882276
0.1379714863
0.1414544313
0.1450134485
0.1490731549
0.1538082777
0.1591436882
0.1648885757
0.1712350591
0.1782583082
0.1860052999
0.1945146971
0.2038168480
0.2139337869
0.2248792333
0.2366585925
0.2492689556
0.2627243968
0.2770063246
0.2920205120
0.3076632207
0.3238218729
0.3403750524
0.3571925038
0.3741351327
0.3910550059
0.4077953513
0.4241907922
0.4400703877
0.4552567636
0.4695637625
0.4827963880
0.4947508049
0.5052143389
0.5139684226
0.5208819233
0.5258806695
0.5288997451
0.5298973630
0.5288548651
0.5257767221
0.5206906256
0.5136486074
0.5047266855
0.4940240246
0.4816629185
0.4677887900
0.4525701906
0.4361988010
0.4188894306
0.4008800180
0.3824316303
0.3637906294
0.3450703346
0.3264432386
0.3080755193
0.2901166459
0.2726993790
0.2559397705
0.2399371638
0.2247741935
0.2105167856
0.1972141573
0.1848988175
0.1735865662
0.1632764947
0.1539509858
0.1455757136
0.1380996436
0.1314550325
0.1255639117
0.1204178263
0.1159767628
0.1121840790
0.1089864147
0.1063336921
0.1041791157
0.1024789114
0.1011875303
0.1002581202
0.0996469455
0.0993135526
0.0992207705
0.0993347103
0.0996247652
0.1000636110
0.1006272056
0.1012947890
0.1020488839
0.1028752948
0.1037631089
0.1047073292
0.1057011081
0.1067243186
0.1077577588
0.1087837162
0.1097859681
0.1107497813
0.1116619125
0.1125106078
0.1132856030
0.1139781236
0.1145811628
0.1150956704
0.1155305958
0.1158966643
0.1162060910
0.1164725805
0.1167113271
0.1169390147
0.1171738170
0.1174353971
0.1177449080
0.1181249923
0.1185997821
0.1191948646
0.1198848229
0.1207533787
0.1219715956
0.1236975208
0.1260761862
0.1292396074
0.1333067842
0.1383837005
0.1445633244
0.1519256078
0.1605374871
0.1704527181
0.1817073840
0.1943193474
0.2082931811
0.2237335598
0.2404742302
0.2578588625
0.2752750860
0.2921648848
0.3080245979
0.3224049192
0.3349108975
0.3452019365
0.3529917946
0.3580486004
0.3601959572
0.3593136995
0.3553361959
0.3482521698
0.3381202317
0.3253381878
0.3105425745
0.2943241779
0.2772187061
0.2597067886
0.2422140401
0.2251132172
0.2087247537
0.1933141771
0.1790919367
0.1662134033
0.1547788696
0.1451212858
0.1380930605
0.1325781598
0.1274008448
0.1215740029
0.1142991487
0.1049664237
0.0931545962
0.0786310614
0.0613518413
0.0414615848
0.0192935679
-0.0046303069
-0.0295502232
-0.0484121884
-0.0473658937
-0.0161361018
0.0512684994
0.1565552509
0.2971455082
0.4661738601
0.6524915613
0.8361375207
0.9804467022
1.0569841961
1.0518341604
0.9655998209
0.8134034714
0.6223329865
0.4180347260
0.2238423951
0.0569000234
-0.0721934724
-0.1593849700
-0.2067301120
-0.2173256296
-0.2012852035
-0.1690952585
-0.1293590626
-0.0887967274
-0.0522452075
-0.0226583013
-0.0011066501
0.0134610555
0.0233789513
0.0299041884
0.0340867271
0.0368280946
0.0388813853
0.0408512608
0.0431939500
0.0462172488
0.0500805203
0.0547946950
0.0602222702
0.0660782420
0.0723765098
0.0793720816
0.0871174141
0.0956523440
0.1050040883
0.1151872442
0.1262037889
0.1380430798
0.1506818546
0.1640842308
0.1782017065
0.1929731597
0.2083248176
0.2241891560
0.2405286614
0.2571539091
0.2738642682
0.2904667547
0.3067760318
0.3226144100
0.3378118466
0.3522059465
0.3656419614
0.3779727903
0.3890589793
0.3987687217
0.4069778579
0.4135700996
0.4184377668
0.4214810846
0.4226079254
0.4216624228
0.4184365472
0.4130948451
0.4058244966
0.3968073889
0.3862201161
0.3742339995
0.3610173708
0.3467376554
0.3315574784
0.3156341713
0.2991197729
0.2821610285
0.2648993908
0.2474710188
0.2300067790
0.2126322444
0.1954676951
0.1786281179
0.1622232068
0.1463573625
0.1311296927
0.1166340118
0.1029588414
0.0901874098
0.0783976522
0.0676613635
0.0579958588
0.0493464021
0.0416553849
0.0348673601
0.0289290219
0.0237856956
0.0193773568
0.0156451808
0.0125325046
0.0099848267
0.0079498076
0.0063772692
0.0052191953
0.0044297312
0.0039651839
0.0037840222
0.0038468765
0.0041165389
0.0045579632
0.0051382442
0.0058264919
0.0065939151
0.0074138836
0.0082619290
0.0091157448
0.0099551858
0.0107622687
0.0115211720
0.0122182357
0.0128419721
0.0133861644
0.0138541592
0.0142525423
0.0145955547
0.0148998638
0.0151543954
0.0153487962
0.0154753118
0.0155287873
0.0155066666
0.0154089932
0.0152384094
0.0150001568
0.0147020763
0.0143546079
0.0139707908
0.0135662632
0.0131592627
0.0127706259
0.0124237888
0.0121447865
0.0119622530
0.0119074218
0.0120141256
0.0123187957
0.0128602947
0.0136754410
0.0147453450
0.0162218198
0.0182994971
0.0211487861
0.0249158729
0.0297227209
0.0356670706
0.0428224396
0.0512381227
0.0609391919
0.0719264962
0.0841766621
0.0976420791
0.1122507443
0.1279075407
0.1446235073
0.1619835785
0.1793691650
0.1962231096
0.2120496879
0.2264146073
0.2389450079
0.2493294600
0.2573149714
0.2627010003
0.2653467605
0.2651728982
0.2621614920
0.2563560526
0.2478615234
0.2368064988
0.2236045901
0.2088442773
0.1930593033
0.1767279898
0.1602732366
0.1440625224
0.1284079040
0.1135660171
0.0997380755
0.0870698718
0.0756517768
0.0655187401
0.0566502895
0.0489705315
0.0423481509
0.0366063157
0.0318893287
0.0273850255
0.0219269307
0.0145056187
0.0042655733
-0.0094948118
-0.0273232331
-0.0496134775
-0.0766273099
-0.1059364876
-0.1301325241
-0.1419156149
-0.1346602174
-0.1024150513
-0.0399030983
0.0574784039
0.1951548717
0.3688764964
0.5555713725
0.7328972734
0.8802963508
0.9789951343
1.0120045314
0.9641706522
0.8375524807
0.6611734453
0.4615339073
0.2607590641
0.0766111154
-0.0775069411
-0.1924256423
-0.2633750203
-0.2969690819
-0.3017110878
-0.2853547743
-0.2549043535
-0.2166145127
-0.1759904152
-0.1377876996
-0.1060124803
-0.0835537425
-0.0684964889
-0.0585045487
-0.0519481258
-0.0474980136
-0.0441255951
-0.0411028424
-0.0380023174
-0.0346971712
-0.0312826772
-0.0276078564
-0.0235941539
-0.0191801181
-0.0143059783
-0.0089177028
-0.0029669985
0.0035886886
0.0107861738
0.0186565334
0.0272251049
0.0365114870
0.0465295392
0.0572873826
0.0688039514
0.0810705875
0.0940180879
0.1075701180
0.1216440203
0.1361507320
0.1509947777
0.1660742690
0.1812809046
0.1964999703
0.2116103388
0.2264844702
0.2409884115
0.2549797360
0.2682996297
0.2807798511
0.2922457456
0.3025162453
0.3114101762
0.3188324951
0.3247058376
0.3289589281
0.3315392283
0.3324129367
0.3315649889
0.3289990578
0.3247375530
0.3188216214
0.3113111470
0.3022847506
0.2918397903
0.2800923612
0.2671772953
0.2532481619
0.2384772673
0.2230556547
0.2071931045
0.1910491035
0.1747192383
0.1583632381
0.1421270445
0.1261427593
0.1105286443
0.0953891215
0.0808147735
0.0668823430
0.0536547329
0.0411810068
0.0294963881
0.0186222608
0.0085661692
-0.0006781822
-0.0091309289
-0.0168261859
-0.0238105836
-0.0300890736
-0.0357001605
-0.0407080246
-0.0451746340
-0.0491597444
-0.0527208988
-0.0559134280
-0.0587904502
-0.0614004883
-0.0637751136
-0.0659380569
-0.0679108248
-0.0697127119
-0.0713608002
-0.0728699591
-0.0742528458
-0.0755199049
-0.0766793687
-0.0777372570
-0.0786973770
-0.0795613238
-0.0803284797
-0.0809960148
-0.0815561180
-0.0819887255
-0.0822881242
-0.0824500111
-0.0824690671
-0.0823389574
-0.0820523310
-0.0816008212
-0.0809750452
-0.0801646045
-0.0791608239
-0.0779732289
-0.0766185541
-0.0751125495
-0.0734699494
-0.0717044718
-0.0698288190
-0.0678546772
-0.0657927169
-0.0636525925
-0.0614429424
-0.0591713892
-0.0568445396
-0.0544679842
-0.0520462980
-0.0495831266
-0.0470814551
-0.0445433432
-0.0419698347
-0.0393609572
-0.0367974963
-0.0344086862
-0.0320076760
-0.0294126848
-0.0264652057
-0.0230279458
-0.0189704490
-0.0141776619
-0.0085577557
-0.0020421756
0.0054143594
0.0138338563
0.0232150483
0.0335333948
0.0447410811
0.0567670187
0.0695168454
0.0828729248
0.0966943469
0.1108169276
0.1250532090
0.1391924594
0.1530006731
0.1662205705
0.1785715982
0.1897499288
0.1994284612
0.2072568202
0.2128613569
0.2158451484
0.2157868825
0.2122318056
0.2048238803
0.1941253263
0.1808533149
0.1656410148
0.1490650899
0.1316456996
0.1138464984
0.0960746358
0.0786807570
0.0619590021
0.0461470067
0.0314259014
0.0179203123
0.0056986360
-0.0052253822
-0.0148937369
-0.0234049253
-0.0309139493
-0.0376323154
-0.0438280351
-0.0498256245
-0.0560061044
-0.0628070005
-0.0707215295
-0.0802908981
-0.0921077424
-0.1068211358
-0.1251366563
-0.1478163865
-0.1753254808
-0.2018402810
-0.2172045967
-0.2130833138
-0.1831709713
-0.1231917609
-0.0308995272
0.0939222326
0.2494603685
0.4319634035
0.6255265078
0.7991255490
0.9277045708
0.9939022187
0.9880517405
0.9081809858
0.7613339596
0.5727756198
0.3704955388
0.1767663982
0.0081124697
-0.1246847787
-0.2154041137
-0.2653369641
-0.2817897398
-0.2720635704
-0.2433759773
-0.2028608733
-0.1575685628
-0.1144657419
-0.0799493162
-0.0544484846
-0.0358902321
-0.0225821604
-0.0130403059
-0.0059913650
-0.0003718350
0.0046735340
0.0096900684
0.0147906279
0.0200364973
0.0254819337
0.0311739672
0.0371524016
0.0434514263
0.0501206625
0.0572192259
0.0647993959
0.0729062256
0.0815776870
0.0908507926
0.1007558136
0.1113088294
0.1225126509
0.1343568205
0.1468176125
0.1598580324
0.1734278176
0.1874634370
0.2018880910
0.2166117116
0.2315309626
0.2465292392
0.2614766682
0.2762301081
0.2906331489
0.3045161122
0.3177031088
0.3301130127
0.3415982484
0.3519790145
0.3610861952
0.3687739197
0.3749199447
0.3794256538
0.3822160582
0.3832397963
0.3824691335
0.3798999627
0.3755518041
0.3694678049
0.3617147397
0.3523830105
0.3415866462
0.3294633856
0.3161641245
0.3017617614
0.2864377355
0.2703939693
0.2538194728
0.2368903435
0.2197697664
0.2026080139
0.1855424459
0.1686977917
0.1521913759
0.1361326263
0.1206182414
0.1057320068
0.0915447958
0.0781145692
0.0654863752
0.0536923495
0.0427650331
0.0327882264
0.0237265552
0.0155234646
0.0081244150
0.0014768820
-0.0044696432
-0.0097636543
-0.0144516295
-0.0185780317
-0.0221853083
-0.0253138917
-0.0280021986
-0.0302866306
-0.0322015737
-0.0337793988
-0.0350505015
-0.0360442054
-0.0367887722
-0.0373104907
