ECG
1.0857210179
1.0348291217
0.9022772085
0.7150916544
0.5019301467
0.2917113882
0.1102658076
-0.0311308187
-0.1283028083
-0.1813234058
-0.1945156591
-0.1764524186
-0.1395029059
-0.0945538056
-0.0496060696
-0.0103173347
0.0201060039
0.0409087924
0.0537871185
0.0624938831
0.0687995813
0.0735794922
0.0776631764
0.0816798186
0.0860582282
0.0910268390
0.0966135431
0.1026991886
0.1093947263
0.1167890487
0.1249395695
0.1338934780
0.1436877397
0.1543490958
0.1658940637
0.1783289367
0.1916497841
0.2058424511
0.2208871143
0.2369327175
0.2539069395
0.2715971603
0.2897963985
0.3083033110
0.3269221934
0.3454629798
0.3637412427
0.3815781932
0.3988006809
0.4152411938
0.4307378587
0.4451350111
0.4582856087
0.4700492255
0.4802910746
0.4888820080
0.4956985157
0.5006227265
0.5035424077
0.5043509652
0.5029474431
0.4990938510
0.4927785113
0.4842865456
0.4738912951
0.4618539641
0.4484236204
0.4338371947
0.4183194815
0.4020831382
0.3853286857
0.3682445081
0.3510068527
0.3337798304
0.3167154150
0.2999534439
0.2836207019
0.2678265684
0.2526664049
0.2382234344
0.2245687426
0.2117612790
0.1998478562
0.1888631500
0.1788296997
0.1697579077
0.1616460398
0.1544802251
0.1482441068
0.1428894326
0.1383395788
0.1345209623
0.1313631515
0.1287988657
0.1267639750
0.1251975011
0.1240416165
0.1232416446
0.1227460602
0.1225064891
0.1224777080
0.1226186866
0.1228982193
0.1232908628
0.1237743294
0.1243294827
0.1249403372
0.1255940586
0.1262809637
0.1269945202
0.1277313472
0.1284912144
0.1292782548
0.1301004145
0.1309531868
0.1318317014
0.1327325558
0.1336538150
0.1345950115
0.1355571456
0.1365426852
0.1375555659
0.1386011907
0.1396864306
0.1408196238
0.1420105765
0.1432696136
0.1446015092
0.1460093560
0.1474976995
0.1490725529
0.1507413969
0.1525131801
0.1543983184
0.1564086955
0.1585576629
0.1608347914
0.1632756855
0.1660159863
0.1691866879
0.1729120983
0.1773098397
0.1824908484
0.1885593749
0.1956129838
0.2037425539
0.2130322781
0.2235596634
0.2353955310
0.2486040163
0.2632434050
0.2794894220
0.2970624256
0.3154279987
0.3340778434
0.3525297513
0.3703276028
0.3870413676
0.4022671047
0.4156269618
0.4267691762
0.4353680740
0.4411240706
0.4437636705
0.4430394673
0.4387161186
0.4306616077
0.4194783130
0.4058620097
0.3904528647
0.3738354367
0.3565386764
0.3390359261
0.3217449202
0.3050277848
0.2891910378
0.2744849356
0.2610978226
0.2491589077
0.2387417530
0.2298643121
0.2224889309
0.2165223467
0.2136411685
0.2132479744
0.2121675867
0.2080481313
0.1993617195
0.1854044481
0.1662963991
0.1429816400
0.1172282234
0.0916281874
0.0695975555
0.0552682997
0.0550703358
0.0828972790
0.1488560703
0.2570008856
0.4053331362
0.5858014687
0.7843021533
0.9805156504
1.1426560850
1.2374794559
1.2466030863
1.1674013050
1.0130054459
0.8121370787
0.5971411541
0.3924507377
0.2168146434
0.0820107390
-0.0071540542
-0.0528437610
-0.0607693699
-0.0398364524
-0.0022556378
0.0421316725
0.0858790909
0.1239352441
0.1536437725
0.1747433306
0.1895968271
0.2004147448
0.2081827263
0.2137797377
0.2179774518
0.2214412463
0.2247324189
0.2283082334
0.2325219191
0.2376226713
0.2437556509
0.2509619846
0.2591787649
0.2682390500
0.2778718639
0.2880257953
0.2990050676
0.3108390057
0.3235374772
0.3370931315
0.3514813999
0.3666604953
0.3825714127
0.3991379289
0.4162666025
0.4338467741
0.4517505659
0.4698328822
0.4879316670
0.5058832867
0.5236218700
0.5409201619
0.5575197109
0.5731849607
0.5877032503
0.6008848142
0.6125627819
0.6225931787
0.6308549247
0.6372498357
0.6417026226
0.6441608917
0.6445951446
0.6429987782
0.6393880849
0.6338022521
0.6263033628
0.6169687226
0.6057832368
0.5929349701
0.5786807201
0.5632648616
0.5469193475
0.5298634810
0.5123001406
0.4944163527
0.4763866108
0.4583729858
0.4405251261
0.4229802576
0.4058631837
0.3892862856
0.3733495218
0.3581404284
0.3437341189
0.3301932846
0.3175681940
0.3058966935
0.2952060299
0.2855446222
0.2768738015
0.2691226538
0.2622225785
0.2561072884
0.2507128095
0.2459774809
0.2418419551
0.2382491980
0.2351446684
0.2324799811
0.2302128739
0.2283035900
0.2267146857
0.2254110309
0.2243598084
0.2235305146
0.2228949589
0.2224272641
0.2221038662
0.2219035146
0.2218072719
0.2217985139
0.2218629297
0.2219885217
0.2221656056
0.2223868102
0.2226522954
0.2229799448
0.2233648843
0.2238005673
0.2242818287
0.2248048853
0.2253673352
0.2259680088
0.2266033105
0.2272670057
0.2279540493
0.2286607777
0.2293849091
0.2301255431
0.2308831614
0.2316596272
0.2324581852
0.2332834620
0.2341414658
0.2350395866
0.2359865959
0.2369926471
0.2380692749
0.2392293962
0.2404873091
0.2418537893
0.2432796648
0.2448759705
0.2468004438
0.2491985836
0.2522036507
0.2559366677
0.2605065321
0.2660134417
0.2725495132
0.2801948650
0.2890173774
0.2990726925
0.3104042139
0.3230431071
0.3370082995
0.3523232181
0.3691531302
0.3870048641
0.4052272727
0.4232254998
0.4404609798
0.4564514380
0.4707708906
0.4830496442
0.4929742967
0.5002877363
0.5047891423
0.5063339847
0.5048340243
0.5002573125
0.4926281918
0.4820266503
0.4687168406
0.4533217517
0.4364645847
0.4187091509
0.4005598717
0.3824617788
0.3648005141
0.3479023295
0.3320340874
0.3174032601
0.3041579303
0.2923867908
0.2821191445
0.2733249045
0.2659051643
0.2596992885
0.2544275125
0.2496196068
0.2446136511
0.2385560339
0.2304014526
0.2189129137
0.2026617325
0.1802078382
0.1527939411
0.1245282377
0.1007109693
0.0877841144
0.0933312614
0.1260360409
0.1922143677
0.2980025833
0.4446578407
0.6253169471
0.8249963635
1.0205922049
1.1812586450
1.2776710549
1.2934425171
1.2248074553
1.0805420590
0.8819642827
0.6628491480
0.4546792326
0.2728595959
0.1284893292
0.0274045914
-0.0298213909
-0.0478783237
-0.0357136274
-0.0024844740
0.0409653175
0.0859691727
0.1264089678
0.1587150299
0.1818661368
0.1973872730
0.2078809302
0.2147749167
0.2193560001
0.2226786616
0.2255650959
0.2286052113
0.2321566297
0.2363446864
0.2410624303
0.2461324169
0.2517629637
0.2580239469
0.2649628902
0.2726191618
0.2810239739
0.2902003832
0.3001632904
0.3109194653
0.3224698293
0.3348116966
0.3480201948
0.3623121894
0.3775159416
0.3934314241
0.4098650574
0.4266297103
0.4435446994
0.4604357894
0.4771351933
0.4934815717
0.5093200335
0.5245021357
0.5388858831
0.5523357287
0.5647225735
0.5759237666
0.5858231050
0.5943108338
0.6012836462
0.6066446833
0.6103035343
0.6121762364
0.6121852606
0.6102575707
0.6063226619
0.6003153272
0.5921360169
0.5819191574
0.5699062181
0.5563286147
0.5414077090
0.5253548086
0.5083711672
0.4906479848
0.4723664072
0.4536975262
0.4348023798
0.4158319519
0.3969271726
0.3782189180
0.3598280102
0.3418652172
0.3244312532
0.3076167786
0.2915023995
0.2761586682
0.2616460831
0.2480150953
0.2353075699
0.2235582751
0.2128034496
0.2030310332
0.1941753869
0.1861727367
0.1789617306
0.1724834388
0.1666813538
0.1615013903
0.1568918852
0.1528035975
0.1491897084
0.1460058215
0.1432099624
0.1407625790
0.1386265413
0.1367671415
0.1351520942
0.1337515360
0.1325380256
0.1314865443
0.1305744951
0.1297817035
0.1290904148
0.1284843578
0.1279473300
0.1274651875
0.1270262089
0.1266210949
0.1262429685
0.1258873747
0.1255522807
0.1252380762
0.1249475727
0.1246863610
0.1244611851
0.1242588305
0.1240636590
0.1238627169
0.1236457359
0.1234051323
0.1231360074
0.1228361476
0.1225060239
0.1221487925
0.1217702945
0.1213790558
0.1209862873
0.1206058854
0.1202549965
0.1199552197
0.1197315212
0.1196116071
0.1196258688
0.1198073824
0.1201919088
0.1207822128
0.1216442667
0.1229599197
0.1248951344
0.1275981976
0.1311997214
0.1358126421
0.1415322207
0.1484360432
0.1565840200
0.1660183861
0.1767637013
0.1888268502
0.2021970417
0.2168545681
0.2328571197
0.2497657885
0.2670109741
0.2840635997
0.3004340173
0.3156732922
0.3293735189
0.3411678211
0.3507303517
0.3577762929
0.3620618562
0.3633842822
0.3615818407
0.3565338309
0.3481381471
0.3365498006
0.3223771165
0.3062127116
0.2886024276
0.2700453312
0.2509937139
0.2318530921
0.2129822071
0.1946930253
0.1772507377
0.1608737604
0.1457337345
0.1319555257
0.1196178684
0.1087549529
0.0993448983
0.0912496520
0.0842004737
0.0777842791
0.0714423056
0.0644701115
0.0560175763
0.0450889009
0.0305426070
0.0110915378
-0.0146555350
-0.0450374054
-0.0742330228
-0.0959733787
-0.1037619577
-0.0908747381
-0.0503601915
0.0249607168
0.1414058598
0.2962424714
0.4791395603
0.6747080591
0.8625045661
1.0170306383
1.1077306499
1.1071831003
1.0229357516
0.8742291436
0.6818281538
0.4680219967
0.2566242244
0.0728196906
-0.0685831728
-0.1674504792
-0.2256047381
-0.2469952293
-0.2376980027
-0.2059158784
-0.1619784467
-0.1175759747
-0.0784537654
-0.0463451783
-0.0220616329
-0.0054541000
0.0045868983
0.0101312891
0.0139127718
0.0168620015
0.0193460553
0.0217384890
0.0243320627
0.0273382663
0.0308872921
0.0350280352
0.0397294813
0.0450045387
0.0509403778
0.0575960584
0.0650186476
0.0732432197
0.0822928566
0.0921786470
0.1028996873
0.1144430809
0.1267839388
0.1398853789
0.1536985266
0.1681625146
0.1832063170
0.1988404254
0.2149386042
0.2312910804
0.2476956510
0.2639580162
0.2798931549
0.2953241605
0.3100816967
0.3240039967
0.3369368638
0.3487336712
0.3592553615
0.3683704476
0.3759550119
0.3818927068
0.3860747544
0.3883999467
0.3887746456
0.3871127825
0.3831524664
0.3768101569
0.3683215261
0.3579143200
0.3458080058
0.3322137721
0.3173345287
0.3013649067
0.2844912583
0.2668916573
0.2487353698
0.2301803246
0.2113750601
0.1924598262
0.1735665936
0.1548190545
0.1363326224
0.1182144320
0.1005633391
0.0834699209
0.0670164760
0.0512770239
0.0363173058
0.0221947837
0.0089586412
-0.0033502170
-0.0146991649
-0.0250638553
-0.0344378868
-0.0428741518
-0.0504410884
-0.0572044941
-0.0632276319
-0.0685712294
-0.0732934792
-0.0774499241
-0.0810928194
-0.0842715825
-0.0870330950
-0.0894217034
-0.0914792192
-0.0932449189
-0.0947555439
-0.0960453006
-0.0971458603
-0.0980863593
-0.0988933989
-0.0995910453
-0.1002008297
-0.1007417484
-0.1012302624
-0.1016802978
-0.1021032457
-0.1025079621
-0.1029007681
-0.1032854495
-0.1036562429
-0.1040089348
-0.1043572903
-0.1047137428
-0.1050888406
-0.1054898433
-0.1059216091
-0.1063873227
-0.1068885013
-0.1074249950
-0.1079949868
-0.1085949925
-0.1092198609
-0.1098627736
-0.1105152448
-0.1111671220
-0.1118065851
-0.1124201473
-0.1129926542
-0.1135072847
-0.1139455503
-0.1142872953
-0.1145106971
-0.1145922658
-0.1145068444
-0.1142352318
-0.1138120417
-0.1130962192
-0.1119122217
-0.1101011532
-0.1075217464
-0.1040498104
-0.0995776734
-0.0940141790
-0.0872846860
-0.0793310681
-0.0701117144
-0.0596015292
-0.0477919318
-0.0346908568
-0.0203227538
-0.0046971401
0.0122449817
0.0299474504
0.0477838130
0.0651843192
0.0816359219
0.0966822764
0.1099237413
0.1210173777
0.1296769497
0.1356729242
0.1388324709
0.1390394626
0.1362343826
0.1304135259
0.1216294030
0.1099808898
0.0957291537
0.0794918852
0.0618724246
0.0434160945
0.0246101996
0.0058840270
-0.0123911539
-0.0299020914
-0.0463935517
-0.0616683186
-0.0755871935
-0.0880689956
-0.0990905621
-0.1086867474
-0.1169504241
-0.1240324823
-0.1299701941
-0.1345692672
-0.1392901688
-0.1455430265
-0.1544371021
-0.1667806034
-0.1830787701
-0.2035346591
-0.2280504417
-0.2563028532
-0.2876220346
-0.3120898401
-0.3190459749
-0.3003119287
-0.2501909761
-0.1654681764
-0.0454103735
0.1082338038
0.2912339422
0.4950835304
0.6889400456
0.8382618809
0.9197095266
0.9212251693
0.8420326915
0.6926286621
0.4947329909
0.2779579144
0.0677035479
-0.1172731355
-0.2648584791
-0.3695842189
-0.4320339040
-0.4535556957
-0.4444246726
-0.4155821472
-0.3761608858
-0.3334851092
-0.2930704925
-0.2586241647
-0.2320447093
-0.2134221638
-0.2006029645
-0.1909470531
-0.1837485298
-0.1784121730
-0.1743986673
-0.1712246036
-0.1684624787
-0.1657406955
-0.1627435631
-0.1592112968
-0.1549400180
-0.1497817541
-0.1436444388
-0.1364917729
-0.1283412640
-0.1192647004
-0.1093897339
-0.0988999225
-0.0878042223
-0.0758610607
-0.0630885262
-0.0495201866
-0.0352014559
-0.0201895936
-0.0045537051
0.0116252585
0.0282545003
0.0452293774
0.0624334015
0.0797382381
0.0970037073
0.1140777831
0.1307965938
0.1469844221
0.1624537046
0.1770050325
0.1904271507
0.2025514342
0.2132868515
0.2224837901
0.2300125761
0.2357671779
0.2396652754
0.2416482649
0.2416812588
0.2397530863
0.2358762926
0.2300871393
0.2224456044
0.2130353823
0.2019638836
0.1893622353
0.1753852809
0.1602115801
0.1440434089
0.1270935971
0.1094644531
0.0913366319
0.0729091160
0.0543656468
0.0358747249
0.0175896104
-0.0003516776
-0.0178263128
-0.0347256950
-0.0509554955
-0.0664365878
-0.0811050858
-0.0949123443
-0.1078249591
-0.1198247664
-0.1309088433
-0.1410893537
-0.1503401531
-0.1586721657
-0.1661467283
-0.1728230330
-0.1787581271
-0.1840069136
-0.1886221505
-0.1926544516
-0.1961522857
-0.1991619771
-0.2017277055
-0.2038915061
-0.2056932691
-0.2071707406
-0.2083595215
-0.2092930416
-0.2100018966
-0.2105137841
-0.2108540957
-0.2110460342
-0.2111106580
-0.2110668805
-0.2109314708
-0.2107190531
-0.2104421072
-0.2101102189
-0.2097102493
-0.2092426279
-0.2087176009
-0.2081441746
-0.2075301150
-0.2068819478
-0.2062049585
-0.2055031922
-0.2047794541
-0.2040353087
-0.2032710806
-0.2024858540
-0.2016774728
-0.2008425409
-0.1999764859
-0.1990755182
-0.1981369903
-0.1971571508
-0.1961310085
-0.1950523317
-0.1939136485
-0.1927062466
-0.1914201738
-0.1900442373
-0.1885660042
-0.1869718015
-0.1852467156
-0.1833745929
-0.1813387681
-0.1791775050
-0.1768004047
-0.1740468470
-0.1707699060
-0.1668363504
-0.1621266431
-0.1565349418
-0.1499690983
-0.1423506591
-0.1336148649
-0.1237106174
-0.1125991859
-0.1002538142
-0.0866614804
-0.0718229446
-0.0557526616
-0.0383618692
-0.0198184586
-0.0007358340
0.0183150513
0.0368132777
0.0542879597
0.0703182455
0.0845333174
0.0966123916
0.1062847181
0.1133295809
0.1175762979
0.1189042209
0.1172427356
0.1125712616
0.1049192525
0.0943471052
0.0811136297
0.0658414403
0.0491261179
0.0315080136
0.0134725630
-0.0045506402
-0.0221879230
-0.0391215334
-0.0550896402
-0.0698863331
-0.0833616228
-0.0954214408
-0.1060276394
-0.1151979921
-0.1230061929
-0.1295818569
-0.1351105201
-0.1398177897
-0.1432643820
-0.1468424122
-0.1524888355
-0.1615735997
-0.1748996459
-0.1927029081
-0.2146523132
-0.2398497812
-0.2668512152
-0.2940063232
-0.3117477018
-0.3095171759
-0.2794700944
-0.2164751036
-0.1181142233
0.0153171504
0.1808102455
0.3726526269
0.5786039666
0.7654412841
0.9025379365
0.9697126472
0.9572295055
0.8657979671
0.7066506350
0.5047330743
0.2894641041
0.0842439212
-0.0939122824
-0.2343743200
-0.3327830311
-0.3861088141
-0.4015497430
-0.3898866583
-0.3604634059
-0.3211860224
-0.2785220741
-0.2375019859
-0.2017191969
-0.1733301609
-0.1530543459
-0.1393738420
-0.1298738998
-0.1232274896
-0.1183205071
-0.1142502060
-0.1103251979
-0.1060654521
-0.1012022961
-0.0956784150
-0.0896478519
-0.0832846822
-0.0763524272
-0.0687796946
-0.0605154762
-0.0515174217
-0.0417518386
-0.0311936925
-0.0198266070
-0.0076428628
0.0053566974
0.0191627652
0.0337573824
0.0491139128
0.0652630969
0.0823195103
0.1001036993
0.1184196262
0.1370778988
0.1558957710
0.1746971424
0.1933125586
0.2115792107
0.2293409360
0.2464482175
0.2627581839
0.2781346101
0.2924479164
0.3055751692
0.3174000808
0.3278130092
0.3367109582
0.3439975775
0.3495831628
0.3533846551
0.3553255580
0.3553358338
0.3533520652
0.3492752238
0.3430262501
0.3348145518
0.3248616136
0.3133803078
0.3005748936
0.2866410175
0.2717657131
0.2561274013
0.2398958899
0.2232323742
0.2062894364
0.1892110461
0.1721325599
0.1551807217
0.1384736625
0.1221209004
0.1062233409
0.0908732765
0.0761543869
0.0621417391
0.0489017861
0.0364920272
0.0249604883
0.0143464057
0.0046803142
-0.0040143691
-0.0117303708
-0.0185230267
-0.0244557453
-0.0295897043
-0.0339838500
-0.0376948977
-0.0407773314
-0.0432834040
-0.0452631371
-0.0467643213
-0.0478325159
-0.0485110491
-0.0488410177
-0.0488612877
-0.0486084936
-0.0481170388
-0.0474190957
-0.0465446053
-0.0455212774
-0.0443745903
-0.0431273291
-0.0417987413
-0.0404056138
-0.0389625025
-0.0374817318
-0.0359733953
-0.0344453549
-0.0329032419
-0.0313504560
-0.0297881658
-0.0282153088
-0.0266279617
-0.0250120183
-0.0233738094
-0.0217256787
-0.0200779941
-0.0184391478
-0.0168155561
-0.0152116598
-0.0136299237
-0.0120708370
-0.0105329131
-0.0090126897
-0.0075047286
-0.0060016163
-0.0044942150
-0.0029722129
-0.0014234078
0.0001666189
0.0018143109
0.0035380876
0.0053583441
0.0072974513
0.0093797560
0.0116315805
0.0140812231
0.0167227409
0.0196050547
0.0228989118
0.0267612525
0.0313329108
0.0367386133
0.0430869802
0.0504705248
0.0589656533
0.0686326655
0.0795157540
0.0916430048
0.1050263970
0.1196618028
0.1355291201
0.1526033125
0.1709550567
0.1901513676
0.2096314066
0.2288778346
0.2474168115
0.2648179965
0.2806945480
0.2947031235
0.3065438798
0.3159604728
0.3227400579
0.3267132893
0.3277543207
0.3257808048
0.3207538937
0.3126750299
0.3018222051
0.2887632070
0.2740371365
0.2581407910
0.2415286643
0.2246129474
0.2077635273
0.1913078133
0.1755302040
0.1606725597
0.1469341325
0.1344717693
0.1234000138
0.1137911062
0.1063361533
0.1023995620
0.1003010534
0.0984181026
0.0954318420
0.0903270611
0.0823922069
0.0712193831
0.0567043511
0.0390465292
0.0187489930
-0.0033815248
-0.0262346342
-0.0483962880
-0.0681487819
-0.0828763464
-0.0829466111
-0.0567578224
0.0033387810
0.1009297042
0.2355396404
0.4026316475
0.5936071479
0.7959404376
0.9871666397
1.1333457956
1.2103560238
1.2062625243
1.1213175779
0.9679605471
0.7693516088
0.5538522524
0.3463460976
0.1650670882
0.0215944881
-0.0791471189
-0.1376652559
-0.1557870659
-0.1444301165
-0.1141573241
-0.0737956154
-0.0304359273
0.0105667932
0.0455944142
0.0727690383
0.0919501463
0.1051107435
0.1145028951
0.1211118656
0.1257985618
0.1293104445
0.1322815293
0.1352323859
0.1385701387
0.1425884664
0.1474676022
0.1532743336
0.1599620028
0.1673705062
0.1752478806
0.1837551529
0.1930641095
0.2032197935
0.2142538255
0.2261844035
0.2390163028
0.2527408765
0.2673360548
0.2827652056
0.2989716481
0.3158828903
0.3334130145
0.3514626806
0.3699398484
0.3888270730
0.4079189112
0.4269863585
0.4458125078
0.4641925491
0.4819337699
0.4988555548
0.5147893855
0.5295788413
0.5430795986
0.5551594308
0.5656982091
0.5745879014
0.5817325733
0.5870483874
0.5904636035
0.5919185790
0.5913657682
0.5887691633
0.5839269340
0.5768627864
0.5678200174
0.5570321342
0.5447228723
0.5311063051
0.5163868468
0.5007592527
0.4844086195
0.4675103846
0.4502303267
0.4327245654
0.4151395615
0.3976121168
0.3802693743
0.3632288180
0.3465982729
0.3304759052
0.3149502220
0.3001000718
0.2859946438
0.2726934686
0.2602464176
0.2486937035
0.2380658800
0.2283832759
0.2196523294
0.2118714376
0.2050238269
0.1990466603
0.1938752434
0.1894473005
0.1857029741
0.1825848258
0.1800378354
0.1780094014
0.1764493408
0.1753098894
0.1745457013
0.1741138494
0.1739738250
0.1740875380
0.1744193171
0.1749359093
0.1756064803
0.1764026144
0.1772983145
0.1782700020
0.1792965168
0.1803591177
0.1814418476
0.1825342867
0.1836300111
0.1847249836
0.1858175307
0.1869083935
0.1880008114
0.1890924955
0.1901775893
0.1912512935
0.1923098777
0.1933506809
0.1943721107
0.1953736442
0.1963558273
0.1973202752
0.1982696719
0.1992077706
0.2001393936
0.2010704323
0.2020078471
0.2029596675
0.2039349919
0.2049439882
0.2059978929
0.2071088052
0.2082878780
0.2095461946
0.2108958950
0.2123378148
0.2138824619
0.2156194938
0.2176427694
0.2200456479
0.2229209893
0.2263611538
0.2304580025
0.2353028968
0.2409866987
0.2475997708
0.2552319761
0.2639726784
0.2739107417
0.2851345309
0.2977319111
0.3118561575
0.3275128117
0.3443388267
0.3619641431
0.3800230697
0.3981543787
0.4160022809
0.4332160300
0.4494494483
0.4643610979
0.4776139518
0.4888753517
0.4978170070
0.5041149957
0.5074497637
0.5075061254
0.5039612851
0.4969783335
0.4870881696
0.4747961897
0.4605786479
0.4448826553
0.4281261809
0.4106980508
0.3929579487
0.3752364155
0.3578348499
0.3410255078
0.3250515026
0.3101268050
0.2964362008
0.2841347786
0.2733480961
0.2640308814
0.2559680150
0.2492004246
0.2435795960
0.2387489202
0.2341436936
0.2289911183
0.2223103016
0.2129122565
0.1994746223
0.1809833569
0.1573263739
0.1300248455
0.1022807781
0.0789770117
0.0666772203
0.0730686620
0.1041249369
0.1691844714
0.2733947614
0.4162530545
0.5916063495
0.7876513951
0.9870791098
1.1663754656
1.2934075723
1.3457515950
1.3142245644
1.2028844843
1.0290303325
0.8203723076
0.6045193883
0.4043755991
0.2361085321
0.1091337194
0.0261146323
-0.0156500536
-0.0202828033
0.0007148769
0.0368291171
0.0794843688
0.1220434043
0.1598073171
0.1900155220
0.2118457545
0.2266648209
0.2369082766
0.2437939269
0.2483474124
0.2514542176
0.2538592731
0.2561669427
0.2588410231
0.2622047437
0.2664407669
0.2715911881
0.2775575355
0.2841007702
0.2910133307
0.2986094158
0.3069691678
0.3161313514
0.3261217967
0.3369533992
0.3486261197
0.3611269845
0.3744300850
0.3884965784
0.4032746869
0.4186996982
0.4346939655
0.4512360160
0.4682698016
0.4855785154
0.5029523234
0.5201904941
0.5371017763
0.5535040724
0.5692242858
0.5840983214
0.5979710852
0.6106964842
0.6221374269
0.6321658228
0.6406625828
0.6475176188
0.6526298439
0.6559071727
0.6572665206
0.6566338044
0.6539280087
0.6489223261
0.6417337404
0.6325811862
0.6216762627
0.6092232331
0.5954190249
0.5804531830
0.5645066998
0.5477519360
0.5303538537
0.5124700792
0.4942509031
0.4758392804
0.4573708302
0.4389738360
0.4207692455
0.4028706709
0.3853843884
0.3684093387
0.3520371266
0.3363520214
0.3214309564
0.3073435296
0.2941520028
0.2819113024
0.2706689330
0.2604349576
0.2511516374
0.2427556965
0.2351859059
0.2283830828
0.2222901265
0.2168531089
0.2120214809
0.2077467859
0.2039823515
0.2006834189
0.1978072744
0.1953132511
0.1931627284
0.1913191322
0.1897479350
0.1884166555
0.1872948589
0.1863541572
0.1855682085
0.1849127175
0.1843654353
0.1839061595
0.1835167343
0.1831810501
0.1828850440
0.1826256282
0.1824062909
0.1822193730
0.1820579551
0.1819159534
0.1817879704
0.1816692470
0.1815558496
0.1814446840
0.1813334952
0.1812208678
0.1811062255
0.1809898315
0.1808727881
0.1807570373
0.1806453600
0.1805413768
0.1804495475
0.1803751711
0.1803243861
0.1803041704
0.1803223409
0.1803875542
0.1805093061
0.1806979315
0.1809646051
0.1813037237
0.1817079496
0.1822720073
0.1830961002
0.1842780140
0.1859126797
0.1880934523
0.1909122627
0.1944596081
0.1988245177
0.2040945510
0.2103557983
0.2176928807
0.2261889497
0.2359256877
0.2469833076
0.2594405533
0.2734837383
0.2891535312
0.3059497151
0.3233791342
0.3409759631
0.3583017065
0.3749451996
0.3905226079
0.4046774269
0.4170804827
0.4274299316
0.4354512826
0.4408989279
0.4435571142
0.4432376497
0.4397796731
0.4330496533
0.4230202330
0.4101391796
0.3949903355
0.3781167012
0.3600202806
0.3411620812
0.3219621139
0.3027993928
0.2840119359
0.2658967642
0.2487099024
0.2326663786
0.2179402241
0.2046644741
0.1930763640
0.1843094439
0.1775470399
0.1716294140
0.1655641761
0.1585262714
0.1498568119
0.1390621183
0.1258156352
0.1099582092
0.0914981006
0.0706109211
0.0476396304
0.0230945356
-0.0023467083
-0.0264610947
-0.0381250142
-0.0254921219
0.0195486495
0.1013662216
0.2205873709
0.3740967286
0.5550367804
0.7528245410
0.9487071132
1.1073713273
1.2006064348
1.2128715443
1.1412956213
0.9956593395
0.7984923191
0.5814656560
0.3714813189
0.1880770156
0.0434260750
-0.0574911564
-0.1105138215
-0.1237667645
-0.1095643414
-0.0784086184
-0.0389893721
0.0018159109
0.0389420336
0.0691360890
0.0909574595
0.1047778176
0.1127811255
0.1182965853
0.1221784074
0.1249642079
0.1271880710
0.1292924094
0.1316279631
0.1344538005
0.1379373176
0.1421542369
0.1470882813
0.1526322795
0.1587992628
0.1657129105
0.1734271192
0.1819815441
0.1914016058
0.2016984901
0.2128691478
0.2248962946
0.2377484117
0.2513797451
0.2657303060
0.2807258707
0.2962779807
0.3122839425
0.3286801050
0.3453689972
0.3621202593
0.3787124217
0.3949350476
0.4105887333
0.4254851076
0.4394468325
0.4523076037
0.4639124945
0.4741184834
0.4827937181
0.4898173792
0.4950796800
0.4984818671
0.4999362195
0.4993660494
0.4966957535
0.4916158129
0.4841861118
0.4746493734
0.4632391668
0.4501799078
0.4356868585
0.4199661276
0.4032146698
0.3856202867
0.3673616259
0.3486081816
0.3295202943
0.3102491511
0.2909367853
0.2717160765
0.2527107518
0.2340359928
0.2157995576
0.1981003558
0.1810281211
0.1646633679
0.1490774445
0.1343325456
0.1204817125
0.1075688327
0.0956286402
0.0846867154
0.0747578050
0.0658131516
0.0577890134
0.0506228424
0.0442547354
0.0386274343
0.0336863260
0.0293794423
0.0256574602
0.0224737015
0.0197841329
0.0175473664
0.0157246586
0.0142799106
0.0131773029
0.0123760991
0.0118366998
0.0115221507
0.0113981423
0.0114330103
0.0115977353
0.0118659429
0.0122139035
0.0126205326
0.0130673909
0.0135386837
0.0140212615
0.0145074270
0.0149998438
0.0154796925
0.0159263740
0.0163209485
0.0166461356
0.0168863139
0.0170275214
0.0170574553
0.0169654720
0.0167425873
0.0163814761
0.0158795637
0.0152470649
0.0144983586
0.0136495178
0.0127184439
0.0117247486
0.0106897027
0.0096362364
0.0085889391
0.0075740595
0.0066195054
0.0057548440
0.0050113015
0.0044217635
0.0039670727
0.0037178339
0.0038660945
0.0045874000
0.0060403566
0.0083666311
0.0116909512
0.0161211052
0.0217479424
0.0286453724
0.0368703659
0.0464607082
0.0574281247
0.0697650871
0.0834471280
0.0984348046
0.1148350868
0.1322341076
0.1499646818
0.1674193867
0.1840505617
0.1993703087
0.2129504919
0.2244227376
0.2334784346
0.2398687340
0.2434045491
0.2439565557
0.2414551917
0.2358906575
0.2273129156
0.2158280014
0.2016484133
0.1853663228
0.1676020868
0.1489158162
0.1298084875
0.1107259233
0.0920551566
0.0741229590
0.0571957273
0.0414795503
0.0271202703
0.0142034835
0.0027545401
-0.0072614558
-0.0159396461
-0.0234354187
-0.0296949172
-0.0349386355
-0.0405218539
-0.0476467094
-0.0573145251
-0.0703258099
-0.0872802585
-0.1085767517
-0.1344133562
-0.1645720764
-0.1934598091
-0.2121526779
-0.2127589066
-0.1884916210
-0.1336705649
-0.0437206580
0.0848286896
0.2571756442
0.4589572088
0.6582691016
0.8281154875
0.9466719239
0.9972853607
0.9684741404
0.8543152886
0.6723569040
0.4589698564
0.2437888373
0.0494327810
-0.1084951359
-0.2214074939
-0.2877326313
-0.3129146435
-0.3060451229
-0.2757502250
-0.2335358322
-0.1885377658
-0.1474170886
-0.1143601322
-0.0910786283
-0.0768096075
-0.0683153397
-0.0621983577
-0.0580284896
-0.0549939121
-0.0524308867
-0.0498255001
-0.0468136642
-0.0431811157
-0.0388634166
-0.0339459536
-0.0285086048
-0.0223954471
-0.0155399831
-0.0078902333
0.0005931457
0.0099368620
0.0201549876
0.0312489590
0.0432075769
0.0560070063
0.0696107764
0.0839697809
0.0990225883
0.1147816480
0.1312107420
0.1480835414
0.1651802638
0.1822897417
0.1992094222
0.2157453675
0.2317122544
0.2469333746
0.2612406346
0.2744745559
0.2864842747
0.2971275419
0.3062707233
0.3137887997
0.3195653665
0.3234926341
0.3254714275
0.3254111866
0.3232299664
0.3187594366
0.3120260406
0.3032549094
0.2926645847
0.2804666361
0.2668633924
0.2520493682
0.2362124471
0.2195338729
0.2021882463
0.1843435431
0.1661611152
0.1477956903
0.1293953720
0.1111016401
0.0930493500
0.0753667335
0.0581753981
0.0415903272
0.0257198804
0.0106657930
-0.0034768235
-0.0166194818
-0.0286845930
-0.0396759127
-0.0496541968
-0.0586791729
-0.0668092625
-0.0741015816
-0.0806117383
-0.0863923062
-0.0914936736
-0.0959649164
-0.0998538043
-0.1032068014
-0.1060690660
-0.1084844504
-0.1104955011
-0.1121434589
-0.1134682587
-0.1145085295
-0.1153015945
-0.1158834712
-0.1162888710
-0.1165511998
-0.1167025575
-0.1167737382
-0.1167810013
-0.1167213646
-0.1166025623
-0.1164318233
-0.1162157305
-0.1159602218
-0.1156705892
-0.1153515545
-0.1150079334
-0.1146443149
-0.1142646476
-0.1138722476
-0.1134698083
-0.1130593803
-0.1126423684
-0.1122195318
-0.1117909846
-0.1113561949
-0.1109139854
-0.1104625334
-0.1099993706
-0.1095213830
-0.1090248113
-0.1085052506
-0.1079596281
-0.1073897463
-0.1067735076
-0.1060778422
-0.1052615652
-0.1042753774
-0.1030618644
-0.1015554975
-0.0996826165
-0.0973612599
-0.0945012337
-0.0910042270
-0.0867638144
-0.0816654559
-0.0755864965
-0.0683961666
-0.0599555818
-0.0501177432
-0.0386282686
-0.0251543597
-0.0100554281
0.0062554427
0.0233755390
0.0409125165
0.0584844007
0.0757195868
0.0922568395
0.1077452934
0.1218444524
0.1342241903
0.1445647507
0.1525567464
0.1579011604
0.1603093712
0.1595034726
0.1552161708
0.1472727766
0.1361204393
0.1224337143
0.1068352017
0.0898957556
0.0721344849
0.0540187529
0.0359641771
0.0183346297
0.0014422374
-0.0144526188
-0.0291413033
-0.0424669263
-0.0543243433
-0.0646601555
-0.0734726851
-0.0808296828
-0.0869577641
-0.0922485674
-0.0972499642
-0.1026660592
-0.1093571905
-0.1183399837
-0.1307881264
-0.1480321874
-0.1715634008
-0.2003448253
-0.2284825407
-0.2494031675
-0.2562722697
-0.2419943546
-0.1992128728
-0.1203101668
0.0011631791
0.1612269128
0.3481294615
0.5448416684
0.7290567927
0.8731905096
0.9443617845
0.9184477546
0.8105041955
0.6435401795
0.4413571219
0.2285487811
0.0305012582
-0.1286009003
-0.2422152553
-0.3114817943
-0.3399865355
-0.3342646563
-0.3038005753
-0.2609200860
-0.2163755309
-0.1757261953
-0.1424375159
-0.1180960644
-0.1024095475
-0.0932068072
-0.0869535239
-0.0823396657
-0.0786680853
-0.0753072487
-0.0717865528
-0.0677963257
-0.0631878263
-0.0579732445
-0.0522062353
-0.0457604009
-0.0385681070
-0.0305739126
-0.0217329850
-0.0120111849
-0.0013868233
0.0101494056
0.0225961276
0.0359413599
0.0501625118
0.0652443175
0.0812857646
0.0981488336
0.1156373984
0.1335588038
0.1517238651
0.1699468685
0.1880455707
0.2058411993
0.2231584524
0.2398254989
0.2556739784
0.2705390012
0.2842591482
0.2966764712
0.3076364924
0.3169882049
0.3245840725
0.3302800296
0.3339355950
0.3354167174
0.3345466628
0.3311452642
0.3254102107
0.3175658242
0.3078300109
0.2964142192
0.2835234389
0.2693562016
0.2541045805
0.2379541906
0.2210841885
0.2036672724
0.1858696823
0.1678511998
0.1497651481
0.1317583923
0.1139713389
0.0965379363
0.0795856745
0.0632355850
0.0476022412
0.0327937582
0.0189117926
0.0060514575
-0.0057013225
-0.0162879462
-0.0257584061
-0.0341842872
-0.0416336071
-0.0481722442
-0.0538639383
-0.0587702901
-0.0629507618
-0.0664626765
-0.0693612186
-0.0716994337
-0.0735282283
-0.0748963704
-0.0758504890
-0.0764350743
-0.0766924777
-0.0766629116
-0.0763844498
-0.0758930271
-0.0752224396
-0.0744043444
-0.0734682598
-0.0724415654
-0.0713494754
-0.0702140013
-0.0690466186
-0.0678436815
-0.0666121455
-0.0653587395
-0.0640894260
-0.0628094308
-0.0615232437
-0.0602346191
-0.0589465751
-0.0576613943
-0.0563806234
-0.0551050732
-0.0538348186
-0.0525691989
-0.0513068174
-0.0500455415
-0.0487825029
-0.0475140975
-0.0462359853
-0.0449430905
-0.0436296013
-0.0422889703
-0.0409139141
-0.0395024028
-0.0380675518
-0.0365583626
-0.0349093530
-0.0330499264
-0.0309043711
-0.0283918608
-0.0254264545
-0.0219170963
-0.0177676157
-0.0128767273
-0.0071380311
-0.0004400121
0.0073339592
0.0163056272
0.0266018510
0.0383546045
0.0517972882
0.0671609082
0.0839978217
0.1018258087
0.1201820046
0.1386229008
0.1567243442
0.1740815376
0.1903090545
0.2050418727
0.2179360377
0.2286671086
0.2369299991
0.2424389452
0.2449275013
0.2441485759
0.2398744329
0.2319788002
0.2209277415
0.2073978987
0.1920145633
0.1753510465
0.1579286794
0.1402168127
0.1226328170
0.1055420826
0.0892580195
0.0740420576
0.0601036465
0.0476002556
0.0366373741
0.0272685108
0.0193435783
0.0127437805
0.0073694831
0.0028688609
-0.0013601770
-0.0061697453
-0.0126619832
-0.0221890535
-0.0363531434
-0.0565391854
-0.0818321196
-0.1092594006
-0.1340538410
-0.1496528900
-0.1476986338
-0.1196526106
-0.0577221076
0.0456104694
0.1906212718
0.3701025492
0.5693626501
0.7667482120
0.9309406336
1.0284905016
1.0406762325
0.9644236585
0.8123060356
0.6123923995
0.3972689177
0.1920156466
0.0157004090
-0.1196439897
-0.2090197857
-0.2544642048
-0.2623273734
-0.2410767372
-0.2031578275
-0.1586485780
-0.1151210466
-0.0776414159
-0.0487699926
-0.0285612079
-0.0147920834
-0.0053580411
0.0010435665
0.0055243687
0.0090117167
0.0122486843
0.0157940672
0.0200223836
0.0251238736
0.0311044953
0.0377848352
0.0448963637
0.0526820310
0.0612546093
0.0706611255
0.0809360059
0.0921010775
0.1041655668
0.1171261006
0.1309667058
0.1456588091
0.1611612376
0.1774202181
0.1944491306
0.2122222818
0.2305256357
0.2491490542
0.2678888177
0.2865476252
0.3049345940
0.3228652603
0.3401615785
0.3566519219
0.3721710820
0.3865602708
0.3996678611
0.4113505327
0.4214716799
0.4299011158
0.4365151520
0.4411967343
0.4438352628
0.4443265564
0.4424650902
0.4381981494
0.4317502529
0.4233408034
0.4131823566
0.4014806209
0.3884344579
0.3742358818
0.3590700601
0.3431153130
0.3265431137
0.3095180882
0.2921980157
0.2747338282
0.2572696105
0.2399426005
0.2228831886
0.2062146124
0.1900523887
0.1745050322
0.1596742105
0.1456547444
0.1325346072
0.1203949255
0.1093099788
0.0993226917
0.0903794830
0.0824146026
0.0753646438
0.0691682515
0.0637661222
0.0591010040
0.0551176967
0.0517630516
0.0489859718
0.0467374118
0.0449703780
0.0436399281
0.0427031717
0.0421192699
0.0418494355
0.0418569328
0.0421068875
0.0425658661
0.0432023643
0.0439869293
0.0448920758
0.0458920011
0.0469628530
0.0480828312
0.0492389504
0.0504320290
0.0516536743
0.0528957475
0.0541507736
0.0554119414
0.0566731034
0.0579287758
0.0591741390
0.0604050368
0.0616179769
0.0628101309
0.0639793341
0.0651240857
0.0662435485
0.0673375494
0.0684065788
0.0694525971
0.0704811453
0.0714990879
0.0725139533
0.0735339336
0.0745678846
0.0756230625
0.0767002278
0.0778375985
0.0790866035
0.0805057975
0.0821608609
0.0841246004
0.0864769484
0.0893049632
0.0927028291
0.0967718563
0.1016204810
0.1073642652
0.1141258970
0.1220351903
0.1312290848
0.1418516465
0.1541198389
0.1682778269
0.1840194396
0.2009818038
0.2188012123
0.2371142126
0.2555576509
0.2737689471
0.2913859163
0.3080466291
0.3233894105
0.3370528407
0.3486757544
0.3578972410
0.3643566448
0.3676935648
0.3675478546
0.3635802058
0.3560073274
0.3454792443
0.3326101094
0.3179679463
0.3020746489
0.2854059815
0.2683915790
0.2514149466
0.2348134600
0.2188788001
0.2038585206
0.1899546209
0.1773229711
0.1660733118
0.1562692540
0.1479282789
0.1413002677
0.1366697798
0.1327684876
0.1283979546
0.1225493121
0.1144032598
0.1033300654
0.0888895646
0.0708311614
0.0490938277
0.0238061037
-0.0057784699
-0.0362226028
-0.0516408840
-0.0393502820
0.0088801378
0.0968292136
0.2238236864
0.3847388319
0.5700011073
0.7655859348
0.9523398146
1.0972490899
1.1710849619
1.1597129771
1.0634222432
0.8969254308
0.6893414924
0.4732783073
0.2700604776
0.0963753477
-0.0372614369
-0.1265059297
-0.1731858833
-0.1833148515
-0.1645198578
-0.1284812797
-0.0848637898
-0.0410727236
-0.0022540802
0.0287054781
0.0511786261
0.0670283991
0.0786562402
0.0870600366
0.0931068484
0.0975665083
0.1011116252
0.1043175840
0.1076625456
0.1115274469
0.1161960013
0.1218546977
0.1285928014
0.1364023537
0.1451781721
0.1547178500
0.1647334190
0.1753744290
0.1868408953
0.1991513034
0.2123082617
0.2262985022
0.2410928799
0.2566463735
0.2728980849
0.2897712394
0.3071731854
0.3249961083
0.3431210628
0.3614151649
0.3797296595
0.3978999100
0.4157992776
0.4333138297
0.4501948317
0.4662103389
0.4811498885
0.4948244996
0.5070666729
0.5177303909
0.5266911177
0.5338457995
0.5391128639
0.5424322205
0.5437652604
0.5430948568
0.5404253644
0.5357826196
0.5292139408
0.5207881280
0.5105207157
0.4984825718
0.4849133892
0.4700436190
0.4540928208
0.4372697877
0.4197725464
0.4017883579
0.3834937171
0.3650543527
0.3466252275
0.3283505382
0.3103637156
0.2927874243
0.2757335630
0.2593032643
0.2435868948
0.2286640549
0.2146035793
0.2014635364
0.1892912287
0.1781442560
0.1680645120
0.1589922910
0.1508652612
0.1436232372
0.1372081810
0.1315639460
0.1266343335
0.1223641683
0.1187004130
0.1155921800
0.1129909165
0.1108505234
0.1091270764
0.1077787985
0.1067660593
0.1060513755
0.1055994105
0.1053769747
0.1053530255
0.1054986670
0.1057871505
0.1061938738
0.1066963820
0.1072743668
0.1079096670
0.1085862682
0.1092903029
0.1100100506
0.1107359376
0.1114605372
0.1121787279
0.1129049423
0.1136437483
0.1143825528
0.1151105967
0.1158189539
0.1165005320
0.1171500720
0.1177641484
0.1183411692
0.1188813757
0.1193868429
0.1198614791
0.1203110262
0.1207430594
0.1211669875
0.1215940527
0.1220373307
0.1225117308
0.1230339954
0.1236227008
0.1242982565
0.1250829056
0.1260007246
0.1270776235
0.1283271371
0.1297426488
0.1314813883
0.1337100931
0.1365801315
0.1402273846
0.1447720597
0.1503189473
0.1569574694
0.1647616791
0.1737902611
0.1840865313
0.1956784371
0.2085785571
0.2227841015
0.2382775277
0.2551628414
0.2730963999
0.2914794396
0.3097596940
0.3274313938
0.3440352667
0.3591585377
0.3724349287
0.3835446591
0.3922143047
0.3982150872
0.4013634183
0.4015221794
0.3986007490
0.3925550027
0.3834075577
0.3715138490
0.3574389989
0.3417157770
0.3248386473
0.3072637691
0.2894089962
0.2716538772
0.2543396558
0.2377692702
0.2222073536
0.2078802340
0.1949759344
0.1834642586
0.1732603141
0.1645060682
0.1571889242
0.1511373946
0.1460211009
0.1413508706
0.1364801355
0.1306046099
0.1227611486
0.1118277155
0.0965234060
0.0752983114
0.0410082775
0.0006370567
-0.0329425177
-0.0493583724
-0.0407391946
-0.0017144312
0.0705857105
0.1765302631
0.3139874991
0.4783249309
0.6624093108
0.8566066309
1.0390764184
1.1722048471
1.2314510443
1.2060865824
1.0991950845
0.9276722252
0.7203012580
0.5041719954
0.3020103046
0.1303227685
-0.0009058324
-0.0882125194
-0.1342973874
-0.1429474577
-0.1244667124
-0.0895936922
-0.0471473457
-0.0040270287
0.0347874953
0.0662360553
0.0891780729
0.1048402486
0.1153690752
0.1222055973
0.1265919556
0.1295717955
0.1319902666
0.1344940227
0.1375312220
0.1413515271
0.1460061047
0.1513476352
0.1570447864
0.1631938380
0.1700148467
0.1775639823
0.1858861790
0.1950152235
0.2049736952
0.2157729227
0.2274129838
0.2398827055
0.2531596639
0.2672101840
0.2819893403
0.2974409563
0.3135245380
0.3302962582
0.3475755235
0.3651478120
0.3828074594
0.4003576587
0.4176104603
0.4343867723
0.4505163599
0.4658378460
0.4801987096
0.4934552535
0.5054726016
0.5161247335
0.5252944863
0.5328735546
0.5387624902
0.5428707027
0.5451164588
0.5454268829
0.5437379567
0.5399803011
0.5339391926
0.5257435132
0.5156287209
0.5038210361
0.4905374411
0.4759856804
0.4603642607
0.4438624509
0.4266602819
0.4089285469
0.3908288011
0.3725133622
0.3541253095
0.3357984763
0.3176571763
0.2998161500
0.2823808802
0.2654476119
0.2491033389
0.2334256560
0.2184828146
0.2043338261
0.1910284641
0.1786072646
0.1671015255
0.1565333067
0.1469158381
0.1382456535
0.1304669572
0.1235153871
0.1173290031
0.1118482877
0.1070161458
0.1027779044
0.0990813130
0.0958765435
0.0931161900
0.0907552692
0.0887512439
0.0870649805
0.0856610679
0.0845066068
0.0835711203
0.0828265541
0.0822472759
0.0818100759
0.0814941667
0.0812811832
0.0811551826
0.0811026445
0.0811124708
0.0811759859
0.0812869363
0.0814414910
0.0816427142
0.0819066458
0.0822237038
0.0825826327
0.0829738209
0.0833893004
0.0838227469
0.0842694798
0.0847264623
0.0851922631
0.0856650944
0.0861418640
0.0866208869
0.0871021217
0.0875871761
0.0880794275
0.0885840244
0.0891077649
0.0896590906
0.0902480868
0.0908864828
0.0915876511
0.0923666084
0.0932400148
0.0942261741
0.0953450340
0.0966181856
0.0980315309
0.0995395834
0.1013373753
0.1036201908
0.1065599565
0.1103052420
0.1149812593
0.1206899010
0.1275123565
0.1355108116
0.1447244987
0.1551692930
0.1668377122
0.1796989169
0.1936987103
0.2087595382
0.2247804892
0.2416431405
0.2590998759
0.2765931809
0.2935747809
0.3095473382
0.3240644518
0.3367306578
0.3472014290
0.3551831753
0.3604332433
0.3627599166
0.3620224156
0.3581308976
0.3510388876
0.3409994835
0.3284914542
0.3139771698
0.2978974639
0.2806756697
0.2627181004
0.2444140487
0.2261356972
0.2082380682
0.1910591522
0.1749199203
0.1601040103
0.1464287623
0.1340492894
0.1232204709
0.1140471645
0.1064842064
0.1003364112
0.0952585721
0.0907554607
0.0861818269
0.0807423993
0.0734918848
0.0633349688
0.0490263152
0.0290405337
-0.0065102941
-0.0515986756
-0.0921134903
-0.1166547914
-0.1165342113
-0.0857749618
-0.0211118341
0.0780088015
0.2094289950
0.3682792174
0.5469783601
0.7352337354
0.9200410760
1.0782137703
1.1746981902
1.1912914020
1.1234741439
0.9803037440
0.7844141210
0.5683953300
0.3578709974
0.1722200820
0.0243297907
-0.0795011489
-0.1395624889
-0.1605856543
-0.1497148572
-0.1188125869
-0.0778503750
-0.0346806827
0.0049631000
0.0374667292
0.0613352167
0.0774985271
0.0881652031
0.0948797304
0.0989676878
0.1015426251
0.1035060635
0.1055474953
0.1081443838
0.1115621637
0.1158542407
0.1208619917
0.1262367172
0.1321061562
0.1386848521
0.1460290370
0.1541833225
0.1631807001
0.1730425400
0.1837782063
0.1953844576
0.2078462767
0.2211370260
0.2352184478
0.2500406637
0.2655468166
0.2817824246
0.2986205808
0.3158522947
0.3332753918
0.3506945125
0.3679211130
0.3847734645
0.4010766538
0.4166625832
0.4313699701
0.4450443476
0.4575380639
0.4687102828
0.4784269834
0.4865609603
0.4929918232
0.4976059975
0.5002967245
0.5009647595
0.4995184650
0.4957512812
0.4897049893
0.4815869786
0.4715989573
0.4599368059
0.4467907250
0.4323452834
0.4167794184
0.4002664355
0.3829740087
0.3650641804
0.3466933614
0.3280123308
0.3091662360
0.2902945930
0.2715312860
0.2530045676
0.2348370589
0.2171457491
0.2000419962
0.1836315261
0.1680144335
0.1532851810
0.1395322852
0.1268370704
0.1152198264
0.1046231658
0.0949897277
0.0862635893
0.0783902661
0.0713167123
0.0649913202
0.0593639205
0.0543857824
0.0500096134
0.0461895593
0.0428812045
0.0400415715
0.0376291213
0.0356037532
0.0339268051
0.0325610530
0.0314707113
0.0306214330
0.0299803091
0.0295158694
0.0291980817
0.0289983524
0.0288891973
0.0288441330
0.0288591414
0.0289304922
0.0290487607
0.0292051390
0.0293915327
0.0296004925
0.0298251690
0.0300593128
0.0302972741
0.0305340033
0.0307650502
0.0309865648
0.0311952969
0.0313885959
0.0315644114
0.0317212925
0.0318583884
0.0319754479
0.0320728200
0.0321514531
0.0322128958
0.0322592963
0.0322934028
0.0323192766
0.0323430629
0.0323464078
0.0323562797
0.0324235878
0.0326043971
0.0329599294
0.0335565625
0.0344658308
0.0357644249
0.0375341917
0.0398621345
0.0428404129
0.0465663429
0.0511423967
0.0566762031
0.0632805468
0.0710733692
0.0801777680
0.0907219970
0.1029560598
0.1172176218
0.1330488074
0.1499459254
0.1674333023
0.1850625396
0.2024098189
0.2190783463
0.2346993457
0.2489320591
0.2614637533
0.2720097919
0.2803136067
0.2861466477
0.2893083833
0.2896262994
0.2869559000
0.2811807071
0.2722122605
0.2602169755
0.2458435853
0.2296781255
0.2122593268
0.1940788959
0.1755815156
0.1571648447
0.1391795182
0.1219291469
0.1056703178
0.0906125940
0.0769191059
0.0647072476
0.0538106725
0.0442447611
0.0361018510
0.0292810872
0.0234884228
0.0182366185
0.0128452426
0.0064406714
-0.0020439113
-0.0138685139
-0.0304863368
-0.0531984931
-0.0806425971
-0.1093101415
-0.1344422733
-0.1500341131
-0.1488347557
-0.1223765755
-0.0644719180
0.0314907235
0.1682004226
0.3408169456
0.5369707516
0.7367625999
0.9129598454
1.0360883403
1.0840140235
1.0473461078
0.9299917669
0.7491558889
0.5353175508
0.3215556623
0.1277651067
-0.0317053262
-0.1485209268
-0.2203610662
-0.2509191957
-0.2477121901
-0.2198012977
-0.1788378971
-0.1340728040
-0.0922472653
-0.0575929594
-0.0318319963
-0.0141789833
-0.0022568527
0.0055908971
0.0106765646
0.0141063378
0.0167812082
0.0193963366
0.0224406139
0.0261966594
0.0307408208
0.0359431744
0.0415213636
0.0476544740
0.0544836139
0.0620612166
0.0704291666
0.0796187997
0.0896509028
0.1005357139
0.1122729225
0.1248516690
0.1382505450
0.1524375935
0.1674384777
0.1832834492
0.1997877880
0.2167636044
0.2340271390
0.2513987625
0.2687030891
0.2857697233
0.3024327948
0.3185305658
0.3339054284
0.3484039098
0.3618769163
0.3741798566
0.3851722996
0.3947179445
0.4026846206
0.4089442876
0.4133730352
0.4158510835
0.4162627826
0.4144385637
0.4102185239
0.4037966016
0.3953843669
0.3851872079
0.3734043304
0.3602287580
0.3458473320
0.3304407115
0.3141833735
0.2972432486
0.2797789285
0.2619412030
0.2438746666
0.2257177316
0.2076026279
0.1896554032
0.1719959232
0.1547378711
0.1379887481
0.1218498731
0.1064163827
0.0917772314
0.0780151915
0.0652068529
0.0534226234
0.0426941797
0.0329589972
0.0241502736
0.0162032974
0.0090553374
0.0026456421
-0.0030845598
-0.0081920598
-0.0127316697
-0.0167556406
-0.0203084799
-0.0234294162
-0.0261556593
-0.0285224389
-0.0305630053
-0.0323087439
-0.0337893287
-0.0350324916
-0.0360639852
-0.0369075816
-0.0375850733
-0.0381162728
-0.0385190126
-0.0388091453
-0.0390005436
-0.0391047585
-0.0391175757
-0.0390347794
-0.0388568995
-0.0385838457
-0.0382149071
-0.0377487524
-0.0371834295
-0.0365163663
-0.0357452175
-0.0348767143
-0.0339231493
-0.0328962946
-0.0318073015
-0.0306667010
-0.0294844037
-0.0282696995
-0.0270312579
-0.0257771280
-0.0245147383
-0.0232508970
-0.0219917916
-0.0207429891
-0.0195094363
-0.0183013775
-0.0171211322
-0.0159405992
-0.0147239337
-0.0134282423
-0.0120035831
-0.0103929656
-0.0085323511
-0.0063506520
-0.0037697326
-0.0007033994
0.0029549761
0.0073285653
0.0125477897
0.0187501191
0.0260800720
0.0346892247
0.0448072049
0.0566748339
0.0700106758
0.0844892105
0.0997838071
0.1155667241
0.1315091094
0.1472809999
0.1625513221
0.1769878916
0.1902574133
0.2020254815
0.2119565798
0.2197140809
0.2249602471
0.2273562296
0.2265620693
0.2222317761
0.2143382058
0.2034757279
0.1902494231
0.1752198291
0.1589032120
0.1417715667
0.1242526165
0.1067298134
0.0895423380
0.0729850994
0.0573087353
0.0427196121
0.0293798247
0.0174071965
0.0068752796
-0.0021866453
-0.0097935690
-0.0150983356
-0.0174923908
-0.0193232425
-0.0225466870
-0.0286162571
-0.0384832228
-0.0525965906
-0.0709031039
-0.0928468010
-0.1173613672
-0.1428711415
-0.1672979606
-0.1881433314
-0.1990933452
-0.1867680992
-0.1411384575
-0.0568554691
0.0667495748
0.2256651401
0.4111994505
0.6099821018
0.8010539260
0.9490180882
1.0261556532
1.0188396583
0.9275351131
0.7667989996
0.5640210483
0.3472784378
0.1407863278
-0.0374526424
-0.1761023838
-0.2704933574
-0.3225987540
-0.3362393962
-0.3204840367
-0.2868188134
-0.2446573406
-0.2013407093
-0.1621374867
-0.1302437163
-0.1067829183
-0.0906317054
-0.0787051249
-0.0698795492
-0.0634455024
-0.0587595254
-0.0552441761
-0.0523880295
-0.0497456777
-0.0469377295
-0.0436508111
-0.0396375656
-0.0347166529
-0.0287727503
-0.0217565517
-0.0136847685
-0.0046401286
0.0052287007
0.0157091041
0.0267275618
0.0385727387
0.0512525353
0.0647482546
0.0790263398
0.0940382128
0.1097203455
0.1259943653
0.1427670564
0.1599303602
0.1773613751
0.1949223565
0.2124607167
0.2298090253
0.2467850085
0.2631915500
0.2788781253
0.2937228948
0.3075005491
0.3200085129
0.3310694793
0.3405314104
0.3482675372
0.3541763193
0.3581801750
0.3602252216
0.3602827526
0.3583493302
0.3544467854
0.3486222182
0.3409479973
0.3315217603
0.3204664136
0.3079301324
0.2940863607
0.2790810998
0.2630090193
0.2460992734
0.2285733825
0.2106380599
0.1924852118
0.1742919371
0.1562205280
0.1384184692
0.1210184387
0.1041383070
0.0878811379
0.0723351878
0.0575739034
0.0436558111
0.0306244798
0.0185086606
0.0073222978
-0.0029354716
-0.0122554756
-0.0206056426
-0.0280473062
-0.0346457745
-0.0404639849
-0.0455625041
-0.0499995277
-0.0538308807
-0.0571100173
-0.0598880206
-0.0622136032
-0.0641331067
-0.0656905019
-0.0669273888
-0.0678829965
-0.0685941835
-0.0690954371
-0.0694188741
-0.0695942404
-0.0696488910
-0.0696067488
-0.0694877947
-0.0693095120
-0.0690870130
-0.0688330392
-0.0685579613
-0.0682697794
-0.0679741223
-0.0676742484
-0.0673708819
-0.0670569625
-0.0667351869
-0.0664130235
-0.0660966733
-0.0657910703
-0.0654998809
-0.0652255043
-0.0649690726
-0.0647304504
-0.0645082352
-0.0642997570
-0.0641010786
-0.0639069957
-0.0637110365
-0.0635054642
-0.0632814283
-0.0630290642
-0.0627372637
-0.0623936514
-0.0619845844
-0.0614951517
-0.0609091307
-0.0602089676
-0.0593867305
-0.0584167877
-0.0571944674
-0.0556122850
-0.0535644556
-0.0509468947
-0.0476572176
-0.0435947398
-0.0386604771
-0.0327571450
-0.0257891594
-0.0176626363
-0.0082853916
0.0024330587
0.0145814983
0.0282904842
0.0435680247
0.0600761584
0.0774577426
0.0953536722
0.1134030537
0.1312432057
0.1485096583
0.1648361533
0.1798546445
0.1931952974
0.2044864889
0.2133548082
0.2194250560
0.2223202446
0.2216588312
0.2174649930
0.2101775346
0.2002337745
0.1880577607
0.1740602716
0.1586388152
0.1421776301
0.1250476842
0.1076066760
0.0901990338
0.0731559199
0.0567958496
0.0414253444
0.0273378124
0.0148032410
0.0036002835
-0.0062571125
-0.0146130178
-0.0214833686
-0.0270557428
-0.0316893244
-0.0359149041
-0.0404348787
-0.0461232518
-0.0540256331
-0.0653592390
-0.0815128922
-0.1038952223
-0.1311376270
-0.1590559407
-0.1825907610
-0.1958563479
-0.1921406238
-0.1639051732
-0.1031261378
-0.0051843055
0.1316191363
0.3029159249
0.4974782747
0.6972188520
0.8771907755
1.0054785599
1.0517900256
1.0159411247
0.9080183774
0.7426713762
0.5391127859
0.3211183437
0.1170268591
-0.0500773419
-0.1772476456
-0.2629642537
-0.3086285985
-0.3185895276
-0.3001433041
-0.2635239643
-0.2194311536
-0.1746841818
-0.1341316883
-0.1008877443
-0.0763318540
-0.0601093974
-0.0501323261
-0.0430476042
-0.0377186150
-0.0335210732
-0.0298431221
-0.0262073931
-0.0222707651
-0.0178246238
-0.0127949362
-0.0072422504
-0.0011959845
0.0054634955
0.0127926810
0.0208389640
0.0296406369
0.0392268927
0.0496178249
0.0608244276
0.0728485953
0.0856831231
0.0993117068
0.1137089424
0.1288405870
0.1447919628
0.1615232926
0.1788460101
0.1965769932
0.2145383247
0.2325572927
0.2504663903
0.2681033153
0.2853109710
0.3019374653
0.3178361114
0.3328654275
0.3468891368
0.3597761674
0.3714006527
0.3816419309
0.3903845454
0.3975182445
0.4029379815
0.4065439150
0.4082414084
0.4079410302
0.4055397853
0.4009222297
0.3942445320
0.3856979236
0.3754685714
0.3637371421
0.3506793045
0.3364658567
0.3212627263
0.3052309701
0.2885267426
0.2713011408
0.2537003231
0.2358655774
0.2179333205
0.2000350991
0.1822975890
0.1648425952
0.1477870525
0.1312430248
0.1153177054
0.1001134170
0.0857276116
0.0722528709
0.0597769017
0.0483455909
0.0379175768
0.0284451127
0.0198811146
0.0121790861
0.0052929176
-0.0008229008
-0.0062132160
-0.0109222123
-0.0149934111
-0.0184696713
-0.0213931887
-0.0238054965
-0.0257474651
-0.0272593022
-0.0283805527
-0.0291500986
-0.0296061593
-0.0297862913
-0.0297273885
-0.0294656817
-0.0290367394
-0.0284754668
-0.0278161068
-0.0270866171
-0.0262851046
-0.0254185869
-0.0244959112
-0.0235253682
-0.0225146949
-0.0214710863
-0.0204011837
-0.0193110720
-0.0182062791
-0.0170917761
-0.0159719813
-0.0148507973
-0.0137315932
-0.0126171817
-0.0115098187
-0.0104112030
-0.0093224771
-0.0082442260
-0.0071764786
-0.0061187063
-0.0050698240
-0.0040281899
-0.0029916051
-0.0019573140
-0.0009219660
0.0001312196
0.0012090670
0.0023114886
0.0034475482
0.0046358255
0.0059057428
0.0072963656
0.0088559110
0.0106417482
0.0127203983
0.0151675341
0.0180679806
0.0215157144
0.0256138640
0.0304747101
0.0362196848
0.0429793726
0.0508935096
0.0601003475
0.0706715634
0.0826259580
0.0959375586
0.1105349515
0.1263012820
0.1430742544
0.1606461320
0.1787637369
0.1971284504
0.2153962127
0.2331768975
0.2500316554
0.2654751228
0.2789764941
0.2899794241
0.2982068283
0.3035023297
0.3057538251
0.3049265796
0.3010630924
0.2942830921
0.2847835360
0.2728386111
0.2587997331
0.2430955472
0.2262319276
0.2087852285
0.1911695614
0.1737410488
0.1568547032
0.1408062167
0.1258319606
0.1121089853
0.0997550208
0.0888284760
0.0793289780
0.0712000293
0.0643269865
0.0585521588
0.0539283595
0.0497747422
0.0451541259
0.0391605116
0.0309190822
0.0195862025
0.0043494192
-0.0155725394
-0.0409630033
-0.0704178367
-0.0975688570
-0.1156832867
-0.1182600324
-0.0990296849
-0.0519545187
0.0287715072
0.1487039932
0.3074328657
0.4935216022
0.6911526175
0.8807139725
1.0387991423
1.1382056911
1.1524803266
1.0823472628
0.9430348592
0.7540456763
0.5391323870
0.3262976383
0.1414369448
-0.0061647690
-0.1115772551
-0.1741267702
-0.1974332969
-0.1891255578
-0.1581865489
-0.1152923281
-0.0693623440
-0.0268905284
0.0080547043
0.0338304566
0.0512193481
0.0631173656
0.0713650565
0.0770909232
0.0813150402
0.0848623267
0.0883626529
0.0922507738
0.0967662737
0.1019535654
0.1076618906
0.1138056102
0.1205816570
0.1280508251
0.1362635233
0.1452603270
0.1550719783
0.1657193862
0.1772136264
0.1895559414
0.2027377404
0.2167405994
0.2315362613
0.2470869708
0.2634958259
0.2807222578
0.2985539940
0.3167860662
0.3352208107
0.3536678682
0.3719441741
0.3898738876
0.4072884302
0.4240265274
0.4399342091
0.4548648098
0.4686789688
0.4812447446
0.4924377441
0.5021409096
0.5102444879
0.5166460301
0.5212503918
0.5239697329
0.5247235178
0.5234385152
0.5200389911
0.5143515015
0.5065169166
0.4967712348
0.4853412268
0.4724444359
0.4582891778
0.4430745403
0.4269903840
0.4102174733
0.3929286623
0.3752883342
0.3574516539
0.3395645587
0.3217637581
0.3041767342
0.2869217415
0.2701078067
0.2538347290
0.2381930801
0.2232642039
0.2091202169
0.1958240079
0.1834292381
0.1719803410
0.1615125228
0.1520526196
0.1436079123
0.1361236256
0.1295364777
0.1237856240
0.1188126563
0.1145616040
0.1109789330
0.1080132424
0.1056120702
0.1037231512
0.1022966207
0.1012850509
0.1006434509
0.1003292668
0.1003022717
0.1005243002
0.1009595444
0.1015746330
0.1023386319
0.1032230439
0.1042018087
0.1052513030
0.1063503406
0.1074801719
0.1086244847
0.1097694035
0.1109034899
0.1120177422
0.1131055961
0.1141650139
0.1152094312
0.1162247907
0.1171922283
0.1181005956
0.1189448449
0.1197221140
0.1204316404
0.1210747611
0.1216549127
0.1221776314
0.1226505532
0.1230834134
0.1234880471
0.1238783890
0.1242704733
0.1246824339
0.1251345043
0.1256490174
0.1262504062
0.1269652027
0.1278220389
0.1288516464
0.1300868561
0.1315625990
0.1333154385
0.1353073643
0.1376542414
0.1405681600
0.1442313569
0.1487974366
0.1543958859
0.1611322006
0.1690878857
0.1783204553
0.1888635076
0.2007270669
0.2138973116
0.2283364294
0.2439826171
0.2607500807
0.2785302408
0.2973479778
0.3167512401
0.3360472867
0.3546151503
0.3719056368
0.3874413253
0.4008165686
0.4116974926
0.4198219966
0.4249997533
0.4271122088
0.4261128007
0.4220307648
0.4149706493
0.4051088967
0.3926933881
0.3780273606
0.3616506168
0.3441497776
0.3260516850
0.3078234016
0.2898722113
0.2725456188
0.2561313496
0.2408573502
0.2268917880
0.2143430515
0.2032597499
0.1936307133
0.1853849929
0.1784104450
0.1726007247
0.1675602061
0.1627196520
0.1573667753
0.1506462388
0.1415595663
0.1289632594
0.1115688447
0.0880309718
0.0599032377
0.0319682151
0.0097137720
-0.0007507377
0.0073053220
0.0412339715
0.1089168188
0.2154219184
0.3601537622
0.5366702762
0.7323679037
0.9284816057
1.1000848611
1.2160902864
1.2535120170
1.2007595768
1.0589009061
0.8545554621
0.6357683319
0.4253698368
0.2406487525
0.0952083610
-0.0052314810
-0.0603582315
-0.0758365747
-0.0627135121
-0.0309111461
0.0108412814
0.0550073897
0.0952436588
0.1264780537
0.1479305239
0.1622015258
0.1714855067
0.1775887918
0.1819295842
0.1855379648
0.1890558927
0.1927517168
0.1967782256
0.2012576996
0.2062833785
0.2119375788
0.2182916933
0.2254061913
0.2333306185
0.2421035583
0.2517513918
0.2622880375
0.2737163987
0.2860284555
0.2992052641
0.3132169574
0.3280227441
0.3435708998
0.3597987684
0.3766340188
0.3940823430
0.4119995904
0.4301481035
0.4483003073
0.4662387092
0.4837558995
0.5006545507
0.5167474182
0.5318573397
0.5458172357
0.5584701091
0.5696690456
0.5792772131
0.5871678624
0.5932243716
0.5973420649
0.5994288409
0.5994028548
0.5971764506
0.5925342322
0.5856116222
0.5766412098
0.5658479467
0.5534491475
0.5396544893
0.5246660119
0.5086781181
0.4918775729
0.4744435043
0.4565474029
0.4383531220
0.4200168776
0.4016872484
0.3835051756
0.3656039633
0.3481092783
0.3311391499
0.3148039701
0.2992064939
0.2844418101
0.2705958395
0.2577445892
0.2459562439
0.2352744708
0.2256538983
0.2170277563
0.2093314796
0.2025026073
0.1964808139
0.1912077840
0.1866272028
0.1826847563
0.1793281311
0.1765070148
0.1741730955
0.1722800621
0.1707836042
0.1696414123
0.1688131774
0.1682605915
0.1679473469
0.1678391372
0.1679036563
0.1681105990
0.1684316602
0.1688404928
0.1693126796
0.1698268366
0.1703809667
0.1709699471
0.1715848322
0.1722173893
0.1728600983
0.1735061517
0.1741494549
0.1747846258
0.1754069953
0.1760126067
0.1765982161
0.1771612924
0.1777000172
0.1782132847
0.1787007018
0.1791625882
0.1795999763
0.1800146111
0.1804089504
0.1807861646
0.1811501371
0.1815054750
0.1818586596
0.1822190267
0.1825620065
0.1829041270
0.1833221317
0.1838955529
0.1847067056
0.1858405989
0.1873848434
0.1894298111
0.1920686578
0.1953973228
0.1995145289
0.2045217826
0.2105233740
0.2176263768
0.2259406482
0.2355788291
0.2466563440
0.2593166543
0.2739829340
0.2902924207
0.3076517251
0.3255067485
0.3433426772
0.3606832089
0.3770897275
0.3921627096
0.4055419220
0.4169064218
0.4259745562
0.4325039629
0.4362915697
0.4371735947
0.4350255463
0.4297622232
0.4213377142
0.4097875367
0.3956185910
0.3795065063
0.3620615240
0.3438349982
0.3253193953
0.3069482946
0.2890963877
0.2720794789
0.2561544850
0.2415194352
0.2283134716
0.2166168491
0.2064510565
0.1991906312
0.1950472517
0.1918690565
0.1879022199
0.1817981399
0.1726134386
0.1598100229
0.1432552213
0.1232216263
0.1003870545
0.0758345461
0.0510523655
0.0279340007
0.0086787408
-0.0003519451
0.0158083582
0.0681471934
0.1619345079
0.2967226532
0.4663463858
0.6589228662
0.8568516598
1.0357672827
1.1622165853
1.2109306621
1.1717274402
1.0495347445
0.8643903610
0.6503957285
0.4379558334
0.2477822870
0.0944182121
-0.0142837064
-0.0771612218
-0.0996657590
-0.0891857477
-0.0569096041
-0.0143149493
0.0297692648
0.0691627561
0.1003339123
0.1223997906
0.1370578039
0.1466983079
0.1528249308
0.1567005534
0.1593690555
0.1616553165
0.1641652149
0.1672856028
0.1711842566
0.1758099386
0.1808974357
0.1864645663
0.1927208076
0.1997228213
0.2075163046
0.2161358253
0.2256049581
0.2359363515
0.2471317286
0.2591818861
0.2720666951
0.2857551007
0.3003263206
0.3157609214
0.3318559073
0.3484130222
0.3652388203
0.3821446660
0.3989467339
0.4154660091
0.4315282866
0.4469641723
0.4616101779
0.4753111980
0.4879176648
0.4992848203
0.5092727172
0.5177462182
0.5245749961
0.5296335344
0.5328011266
0.5339618762
0.5330046975
0.5297882815
0.5241973858
0.5164292241
0.5067017966
0.4952271568
0.4822114114
0.4678547203
0.4523512966
0.4358894067
0.4186513703
0.4008135600
0.3825464021
0.3640143756
0.3453760132
0.3267819420
0.3083696478
0.2902690177
0.2726039920
0.2554925644
0.2390467816
0.2233727436
0.2085706238
0.1947348285
0.1819539118
0.1702888814
0.1596943804
0.1501047620
0.1414562912
0.1336865685
0.1267345299
0.1205404468
0.1150459261
0.1101939101
0.1059286765
0.1021958385
0.0989423448
0.0961164796
0.0936678622
0.0915474478
0.0897092158
0.0881154777
0.0867316925
0.0855246542
0.0844624926
0.0835146728
0.0826519953
0.0818465960
0.0810719465
0.0803186701
0.0795932524
0.0788919366
0.0782115637
0.0775495865
0.0769040697
0.0762736894
0.0756577335
0.0750561016
0.0744693050
0.0738984666
0.0733453211
0.0728122147
0.0723021054
0.0718185630
0.0713657687
0.0709476143
0.0705643917
0.0702157751
0.0699020506
0.0696241154
0.0693890288
0.0692234097
0.0691145300
0.0690532444
0.0690415895
0.0690928836
0.0692317298
0.0694940156
0.0699269133
0.0705888797
0.0715496565
0.0728902696
0.0747030300
0.0770915330
0.0801706586
0.0840665715
0.0889167211
0.0948517135
0.1019483979
0.1103555404
0.1201748606
0.1314460298
0.1441453055
0.1581848628
0.1734127942
0.1896131093
0.2065057353
0.2237465165
0.2409272148
0.2575755091
0.2731549958
0.2870651886
0.2987395282
0.3078156635
0.3140011623
0.3170931785
0.3169786237
0.3136341667
0.3071262343
0.2976110104
0.2853344367
0.2706322124
0.2539297942
0.2357423962
0.2166749903
0.1974220741
0.1785029438
0.1601426137
0.1427089950
0.1264904532
0.1116942069
0.0984463281
0.0867917430
0.0766942739
0.0680366491
0.0606204538
0.0541661264
0.0483129583
0.0426190944
0.0366599381
0.0290380471
0.0175318604
0.0008980301
-0.0210650019
-0.0475170036
-0.0766047675
-0.1041281913
-0.1214963020
-0.1203038179
-0.0930723148
-0.0332500363
0.0647891974
0.2062026828
0.3833169656
0.5777520367
0.7683614791
0.9312657215
1.0398520381
1.0650464893
0.9960694555
0.8549315769
0.6660625529
0.4532858274
0.2398185887
0.0482717690
-0.1019457391
-0.2081689515
-0.2728590909
-0.3000820230
-0.2957520261
-0.2676317908
-0.2253324203
-0.1801933854
-0.1400592914
-0.1068677522
-0.0814623443
-0.0637719408
-0.0528104229
-0.0466764328
-0.0426924131
-0.0395928190
-0.0370011692
-0.0345209993
-0.0318417992
-0.0287389749
-0.0250739186
-0.0207940172
-0.0159305931
-0.0104648171
-0.0043100000
0.0025915130
0.0102860451
0.0188085875
0.0281827993
0.0384210080
0.0495242091
0.0614820660
0.0742729104
0.0878637420
0.1022102286
0.1172565231
0.1329876007
0.1493546009
0.1661649390
0.1832282360
0.2003587363
0.2173753071
0.2341014387
0.2503652447
0.2659994615
0.2808414487
0.2947331889
0.3075212880
0.3190569747
0.3291961009
0.3377991416
0.3447311947
0.3498619813
0.3530658457
0.3542217550
0.3531169908
0.3496281899
0.3439260570
0.3361830094
0.3265683670
0.3152489018
0.3023938130
0.2881723930
0.2727508752
0.2562923952
0.2389569912
0.2209016033
0.2022800741
0.1832431120
0.1639382149
0.1445097611
0.1250990315
0.1058442092
0.0868803795
0.0683395300
0.0503505507
0.0330392339
0.0165282740
0.0009372678
-0.0136172854
-0.0270236105
-0.0392556734
-0.0503683975
-0.0604116792
-0.0694339821
-0.0774831075
-0.0846143541
-0.0908873319
-0.0963603125
-0.1010901343
-0.1051322024
-0.1085404887
-0.1113675316
-0.1136644366
-0.1154808755
-0.1168650871
-0.1178638769
-0.1185226169
-0.1188852461
-0.1189942702
-0.1188907613
-0.1186143587
-0.1182032681
-0.1176942619
-0.1171226795
-0.1165224267
-0.1159259763
-0.1153643650
-0.1148466110
-0.1143741913
-0.1139632514
-0.1136209050
-0.1133475923
-0.1131428847
-0.1130056132
-0.1129338686
-0.1129250015
-0.1129756222
-0.1130816477
-0.1132384924
-0.1134409047
-0.1136828929
-0.1139577250
-0.1142579291
-0.1145752925
-0.1149008628
-0.1152249469
-0.1155371119
-0.1158261842
-0.1160802503
-0.1162866563
-0.1164320083
-0.1165021717
-0.1164831919
-0.1164059537
-0.1162236219
-0.1158452283
-0.1151835344
-0.1141514105
-0.1126617325
-0.1106273824
-0.1079612478
-0.1045762221
-0.1003852047
-0.0953011007
-0.0892368210
-0.0821052822
-0.0738194070
-0.0642921236
-0.0534363662
-0.0411650748
-0.0273223229
-0.0116573020
0.0053466278
0.0231401668
0.0412094678
0.0590761361
0.0762972290
0.0924652566
0.1072081812
0.1201895139
0.1311100099
0.1397074588
0.1457551575
0.1490618548
0.1494717521
0.1468645031
0.1411552141
0.1322945302
0.1203853549
0.1059882252
0.0896998027
0.0720681980
0.0535940247
0.0347303997
0.0158829429
-0.0025902227
-0.0203784709
-0.0372186724
-0.0528951948
-0.0672399027
-0.0801321575
-0.0914224092
-0.1006383542
-0.1082545940
-0.1149186845
-0.1212514759
-0.1278471027
-0.1352724761
-0.1440672619
-0.1547438802
-0.1677875058
-0.1836560679
-0.2027802502
-0.2255634909
-0.2523819828
-0.2824872601
-0.3063255059
-0.3127346015
-0.2931866446
-0.2417897341
-0.1552879705
-0.0330614553
0.1228737086
0.3078654169
0.5131615871
0.7065911555
0.8533472628
0.9303693948
0.9263635103
0.8418020466
0.6889240564
0.4911033759
0.2753057825
0.0653094759
-0.1207480250
-0.2706000394
-0.3778507245
-0.4419751288
-0.4682038443
-0.4622483273
-0.4336666198
-0.3928595302
-0.3481207388
-0.3056367975
-0.2694871300
-0.2416440316
-0.2219726695
-0.2083848959
-0.1989012809
-0.1923775228
-0.1878291541
-0.1844199023
-0.1814616900
-0.1784146347
-0.1748870456
-0.1706353063
-0.1655638504
-0.1597252975
-0.1533204626
-0.1465143004
-0.1390477085
-0.1308493901
-0.1218731074
-0.1120842150
-0.1014596594
-0.0899879793
-0.0776693055
-0.0645153607
-0.0505494601
-0.0358065104
-0.0203330110
-0.0041870530
0.0125616802
0.0298415055
0.0476867920
0.0659408877
0.0843862122
0.1028152484
0.1210305415
0.1388446791
0.1560794353
0.1725654706
0.1881434257
0.2026640040
0.2159879718
0.2279861580
0.2385394546
0.2475388314
0.2548858183
0.2604926022
0.2642814680
0.2661847635
0.2661448991
0.2641143480
0.2600107448
0.2536814887
0.2453136450
0.2351263447
0.2233302893
0.2101277502
0.1957125690
0.1802701574
0.1639774971
0.1470031401
0.1295072356
0.1116429823
0.0935573585
0.0753890931
0.0572684852
0.0393174042
0.0216492893
0.0043691500
-0.0124264340
-0.0286493130
-0.0442197673
-0.0590665068
-0.0731266714
-0.0863458309
-0.0986779851
-0.1100855634
-0.1205394253
-0.1300178857
-0.1385519281
-0.1462016583
-0.1530250220
-0.1590777388
-0.1644133023
-0.1690829800
-0.1731358132
-0.1766186331
-0.1795772062
-0.1820570039
-0.1841014539
-0.1857517580
-0.1870468915
-0.1880236040
-0.1887164187
-0.1891576349
-0.1893775199
-0.1894044755
-0.1892647161
-0.1889822300
-0.1885787794
-0.1880739006
-0.1874849036
-0.1868268723
-0.1861126645
-0.1853529120
-0.1845560204
-0.1837281693
-0.1828733120
-0.1819931353
-0.1810683787
-0.1800968347
-0.1790971256
-0.1780850913
-0.1770732895
-0.1760719637
-0.1750891605
-0.1741307303
-0.1732003266
-0.1722994066
-0.1714272306
-0.1705808626
-0.1697551698
-0.1689428229
-0.1681342960
-0.1673178667
-0.1664796158
-0.1656034278
-0.1646709904
-0.1636617947
-0.1625531353
-0.1613201102
-0.1599356209
-0.1583703720
-0.1565928718
-0.1545694319
-0.1522654994
-0.1497843743
-0.1470125643
-0.1436954433
-0.1396129576
-0.1345796094
-0.1284444574
-0.1210911164
-0.1124377574
-0.1024371076
-0.0910763969
-0.0783772534
-0.0643958329
-0.0492228472
-0.0329835643
-0.0158378087
0.0020200393
0.0203610429
0.0389217091
0.0573966809
0.0752953694
0.0920657852
0.1072241075
0.1203556615
0.1311149182
0.1392254948
0.1444801524
0.1467402974
0.1459353238
0.1420636081
0.1351745263
0.1255298280
0.1135598654
0.0996888256
0.0843327810
0.0678996895
0.0507893942
0.0333936239
0.0160959925
-0.0007280008
-0.0167109710
-0.0316733263
-0.0455669633
-0.0580889396
-0.0690429203
-0.0783461842
-0.0860296242
-0.0922377470
-0.0972286735
-0.1013741381
-0.1051594896
-0.1091836891
-0.1141587416
-0.1209087871
-0.1317949773
-0.1569430247
-0.1915227397
-0.2281321917
-0.2602267264
-0.2821189659
-0.2889788126
-0.2768334651
-0.2425674039
-0.1839223859
-0.0994974444
0.0112511112
0.1480096953
0.3096074458
0.4940162245
0.6933483411
0.8704159456
0.9923423906
1.0392017509
1.0033674405
0.8895122123
0.7143607266
0.5047678481
0.2895350154
0.0910768738
-0.0750948068
-0.2003710646
-0.2823022089
-0.3195644281
-0.3221964833
-0.3012643547
-0.2661709737
-0.2246562226
-0.1827969344
-0.1450068934
-0.1140368345
-0.0909744437
-0.0752428169
-0.0640612410
-0.0555480645
-0.0490547438
-0.0439960098
-0.0398498673
-0.0361575954
-0.0325237472
-0.0286161500
-0.0241659054
-0.0189673890
-0.0128783840
-0.0058203855
0.0022217480
0.0111998838
0.0210026151
0.0314552608
0.0425281435
0.0544421357
0.0672088239
0.0808225201
0.0952631513
0.1104962605
0.1264730056
0.1431301607
0.1603901149
0.1781608733
0.1963360562
0.2147948996
0.2334022550
0.2520085896
0.2704499859
0.2885481421
0.3061103721
0.3229327847
0.3389057691
0.3538580460
0.3675830220
0.3798987814
0.3906480591
0.3996982407
0.4069413622
0.4122941107
0.4156978235
0.4171184887
0.4165467451
0.4139978820
0.4095118395
0.4031532082
0.3950112294
0.3851997951
0.3738574477
0.3611465091
0.3471558766
0.3320440687
0.3160380878
0.2993517282
0.2821855764
0.2647270104
0.2471502004
0.2296161083
0.2122725412
0.1952543189
0.1786831107
0.1626673777
0.1473023731
0.1326701418
0.1188395207
0.1058661387
0.0937924083
0.0826474182
0.0724800368
0.0633509240
0.0552013216
0.0479686693
0.0415925012
0.0360144455
0.0311782248
0.0270296562
0.0235166510
0.0205892147
0.0181994473
0.0163015430
0.0148517905
0.0138085726
0.0131323666
0.0127856856
0.0127328623
0.0129402432
0.0133762691
0.0140114750
0.0148184904
0.0157720392
0.0168489394
0.0180281034
0.0192905380
0.0206193444
0.0219997179
0.0234189484
0.0248664199
0.0263336108
0.0278140940
0.0293035365
0.0307996997
0.0323124035
0.0338563140
0.0354162947
0.0369782146
0.0385300949
0.0400621097
0.0415665853
0.0430382153
0.0444749829
0.0458773995
0.0472481293
0.0485919889
0.0499159474
0.0512291265
0.0525428005
0.0538704027
0.0552277219
0.0566329317
0.0581063708
0.0596705303
0.0613500541
0.0631717383
0.0651645318
0.0673595358
0.0697900041
0.0724481430
0.0753945390
0.0788228043
0.0829077780
0.0878035189
0.0936433062
0.1005396392
0.1085836651
0.1178423204
0.1283604886
0.1401622717
0.1532509914
0.1676091897
0.1831986288
0.1999602909
0.2178351947
0.2368385623
0.2564365523
0.2760134773
0.2950102090
0.3129241774
0.3293093718
0.3437763399
0.3559921884
0.3656805829
0.3726217475
0.3766524654
0.3776660785
0.3756124875
0.3704981518
0.3623860898
0.3513880350
0.3379010864
0.3225309631
0.3058385094
0.2883331144
0.2704727035
0.2526637383
0.2352612165
0.2185686718
0.2028381722
0.1882701507
0.1750132727
0.1631647091
0.1527701668
0.1438238889
0.1364704214
0.1307927116
0.1260656945
0.1215555584
0.1165534739
0.1103755937
0.1023630529
0.0918819688
0.0783234409
0.0611035513
0.0396633639
0.0132014125
-0.0197755592
-0.0479417687
-0.0591744188
-0.0443550642
0.0026303890
0.0848916830
0.2025342083
0.3526590040
0.5293627572
0.7237378039
0.9226630749
1.0954784488
1.2088722129
1.2428773608
1.1911720410
1.0610795568
0.8734155425
0.6599344491
0.4500368806
0.2652393115
0.1191291533
0.0173955671
-0.0362465204
-0.0490397535
-0.0337439959
-0.0012021048
0.0396575507
0.0818183826
0.1201755598
0.1515360089
0.1746184135
0.1900532147
0.2003152663
0.2077475971
0.2132426595
0.2175093902
0.2211522811
0.2246713793
0.2284622867
0.2328161606
0.2379197131
0.2438552117
0.2506004788
0.2580288919
0.2660135254
0.2747543222
0.2843247735
0.2947660043
0.3061036535
0.3183476628
0.3314903556
0.3455073320
0.3603586910
0.3759890450
0.3923275206
0.4092877579
0.4267679110
0.4447114003
0.4630593775
0.4815611873
0.4999729479
0.5180644827
0.5356193202
0.5524346942
0.5683215437
0.5831045130
0.5966219516
0.6087259141
0.6192821603
0.6281701555
0.6352830700
0.6405277792
0.6438248641
0.6451086105
0.6443270245
0.6414419879
0.6362677496
0.6288088507
0.6193301324
0.6080852008
0.5953163955
0.5812547888
0.5661201865
0.5501210935
0.5334545932
0.5163064578
0.4988511931
0.4812520376
0.4636609632
0.4462186749
0.4290546108
0.4122869422
0.3960225734
0.3803571421
0.3653750188
0.3511493074
0.3377418450
0.3252032015
0.3135726802
0.3028783661
0.2931377328
0.2843575679
0.2765408210
0.2696392846
0.2635840001
0.2583088280
0.2537504477
0.2498483570
0.2465448731
0.2437851317
0.2415170874
0.2396915135
0.2382620024
0.2371849652
0.2364196317
0.2359280508
0.2356750901
0.2356284358
0.2357585934
0.2360388870
0.2364454594
0.2369572723
0.2375561065
0.2382265614
0.2389560210
0.2397341492
0.2405529974
0.2414074243
0.2422951071
0.2432162497
0.2441670234
0.2451391325
0.2461252635
0.2471192695
0.2481161149
0.2491119099
0.2501039397
0.2510906645
0.2520717192
0.2530479141
0.2540212345
0.2549948404
0.2559730671
0.2569614248
0.2579665989
0.2589964495
0.2600600120
0.2611674967
0.2623302888
0.2635609230
0.2648706451
0.2662360997
0.2677252444
0.2694425533
0.2714915895
0.2739750046
0.2769945392
0.2806510222
0.2850443716
0.2902735938
0.2964367842
0.3036311267
0.3119528939
0.3214974474
0.3323592371
0.3446318019
0.3584405629
0.3739812106
0.3908577424
0.4085838621
0.4266932441
0.4447395331
0.4622963443
0.4789572631
0.4943359179
0.5080675238
0.5198088586
0.5292367379
0.5360479476
0.5399592440
0.5407073539
0.5380489745
0.5317278729
0.5218038175
0.5089634556
0.4938807732
0.4771734742
0.4594029757
0.4410744086
0.4226366170
0.4044821588
0.3869473051
0.3703120407
0.3548000638
0.3405787861
0.3277593328
0.3163965426
0.3064889676
0.2979788736
0.2907521726
0.2846366707
0.2795444666
0.2748582395
0.2693093720
0.2617341569
0.2510843760
0.2364273002
0.2169456894
0.1919535075
0.1629760026
0.1358573753
0.1173177470
0.1145065706
0.1350026311
0.1868140447
0.2762109467
0.4059073639
0.5730239894
0.7664649654
0.9669166979
1.1468478570
1.2717434562
1.3182581918
1.2807158058
1.1643205318
0.9850053474
0.7694322226
0.5542627698
0.3654387118
0.2137377369
0.1056530005
0.0425621130
0.0207271405
0.0313257020
0.0636350704
0.1068443974
0.1515870431
0.1913240068
0.2223439276
0.2437630839
0.2575231823
0.2665536173
0.2722688982
0.2760031964
0.2788140622
0.2814824244
0.2845125911
0.2881322490
0.2922924637
0.2968747603
0.3020715175
0.3079467845
0.3145533134
0.3219369809
0.3301367889
0.3391848640
0.3491064579
0.3599199471
0.3716775752
0.3845554436
0.3984565862
0.4132430175
0.4287752964
0.4449125269
0.4615123574
0.4784309812
0.4955231362
0.5126421050
0.5296397150
0.5463663382
0.5626708914
0.5784008360
0.5934021781
0.6075194686
0.6205958027
0.6324727990
0.6429905892
0.6519878467
0.6593017900
0.6647681821
0.6682213307
0.6694940882
0.6683836398
0.6648285876
0.6590233030
0.6511655616
0.6414489067
0.6300626474
0.6171918580
0.6030173785
0.5877158146
0.5714595373
0.5544166831
0.5367511543
0.5186226185
0.5001865089
0.4815940243
0.4629921289
0.4445235525
0.4263267947
0.4085364327
0.3912833303
0.3746941664
0.3588913855
0.3439931975
0.3301135779
0.3173384807
0.3056147230
0.2948884112
0.2851112459
0.2762350358
0.2682116974
0.2609932553
0.2545318419
0.2487796976
0.2436891707
0.2392127174
0.2353029021
0.2319123967
0.2289939815
0.2265005443
0.2243850812
0.2226006960
0.2211006006
0.2198381118
0.2187663473
0.2178380322
0.2170298198
0.2163345906
0.2157364021
0.2152204356
0.2147729966
0.2143815146
0.2140345431
0.2137218363
0.2134344774
0.2131647070
0.2129058899
0.2126525148
0.2124001946
0.2121456660
0.2118867896
0.2116225504
0.2113530569
0.2110795420
0.2108045694
0.2105454960
0.2102980358
0.2100467110
0.2097812851
0.2094967340
0.2091932151
0.2088761196
0.2085560801
0.2082489704
0.2079759059
0.2077632429
0.2076425794
0.2076507545
0.2078298488
0.2082271839
0.2088953230
0.2098793545
0.2111402548
0.2128761988
0.2153194445
0.2186678758
0.2230850031
0.2286999633
0.2356075194
0.2438680608
0.2535076033
0.2645177890
0.2768558864
0.2904447918
0.3051734376
0.3208973352
0.3374753006
0.3547802009
0.3721082033
0.3887445079
0.4040627688
0.4175250947
0.4286820482
0.4371725953
0.4427239342
0.4451516573
0.4443598112
0.4403408969
0.4331758696
0.4230341388
0.4101735682
0.3949177271
0.3776761563
0.3590979567
0.3397898117
0.3202876786
0.3010567891
0.2824916489
0.2649160368
0.2485824428
0.2336711640
0.2202915356
0.2084821671
0.1982109422
0.1893750185
0.1818008280
0.1752440769
0.1701137049
0.1655008636
0.1591498551
0.1494393046
0.1353872764
0.1166512733
0.0935282369
0.0669545477
0.0385048430
0.0094428802
-0.0094590877
-0.0051989118
0.0313051322
0.1052143439
0.2177695982
0.3662913452
0.5441796110
0.7409154084
0.9357654447
1.0899460009
1.1738353025
1.1725522218
1.0859562784
0.9286476389
0.7266847223
0.5090147656
0.3016056107
0.1231314127
-0.0150518660
-0.1089065265
-0.1593066262
-0.1703890083
-0.1542658287
-0.1215966288
-0.0811490200
-0.0397986837
-0.0025293714
0.0275670956
0.0492908260
0.0635421821
0.0729926704
0.0790571039
0.0828355476
0.0852633932
0.0871139236
0.0889989755
0.0913689401
0.0945127628
0.0985579433
0.1034705353
0.1090551468
0.1150341450
0.1216462188
0.1290154065
0.1371867310
0.1461920766
0.1560501885
0.1667666737
0.1783339999
0.1907314963
0.2039253533
0.2178686225
0.2325012169
0.2477499104
0.2635426279
0.2798593868
0.2965191330
0.3133158819
0.3300532545
0.3465421446
0.3626000144
0.3780508945
0.3927253838
0.4064606496
0.4191004276
0.4304950220
0.4405012995
0.4489826221
0.4558088705
0.4608564929
0.4640085056
0.4651544937
0.4641537697
0.4607650392
0.4551169793
0.4473937340
0.4377759501
0.4264407771
0.4135618672
0.3993093755
0.3838499598
0.3673467806
0.3499594148
0.3318435805
0.3131514042
0.2940315150
0.2746290447
0.2550856282
0.2355394026
0.2161250083
0.1969735879
0.1782127872
0.1599667545
0.1423561409
0.1254981003
0.1095062892
0.0944908670
0.0805576660
0.0677364198
0.0559672345
0.0451929262
0.0353578362
0.0264078308
0.0182903016
0.0109541653
0.0043498639
-0.0015706356
-0.0068542337
-0.0115481599
-0.0156986649
-0.0193504744
-0.0225467889
-0.0253292837
-0.0277381091
-0.0298118901
-0.0315877266
-0.0331011939
-0.0343863597
-0.0354757848
-0.0364005056
-0.0371900335
-0.0378723545
-0.0384739296
-0.0390196946
-0.0395328561
-0.0400102348
-0.0404486365
-0.0408585308
-0.0412495364
-0.0416304211
-0.0420091017
-0.0423926441
-0.0427869125
-0.0431950493
-0.0436187256
-0.0440587610
-0.0445151244
-0.0449869336
-0.0454724555
-0.0459691061
-0.0464734504
-0.0469812027
-0.0474872261
-0.0479855331
-0.0484692849
-0.0489307921
-0.0493615142
-0.0497520599
-0.0500921868
-0.0503708019
-0.0505759610
-0.0507584679
-0.0509264315
-0.0509434074
-0.0506786450
-0.0500084735
-0.0488163016
-0.0469928296
-0.0444371142
-0.0410557677
-0.0367624830
-0.0314780324
-0.0251302683
-0.0176541224
-0.0089916063
0.0009081888
0.0120890920
0.0245878483
0.0384341159
0.0536541032
0.0700662898
0.0871715972
0.1044731922
0.1214990989
0.1378021988
0.1529602309
0.1665757913
0.1782763337
0.1877141690
0.1945664655
0.1985352489
0.1993474021
0.1967518096
0.1906628381
0.1814563151
0.1695725596
0.1554442604
0.1394964764
0.1221466365
0.1038045395
0.0848723543
0.0657446197
0.0468082446
0.0284425079
0.0110190583
-0.0050994789
-0.0200091918
-0.0336702756
-0.0457819150
-0.0562035641
-0.0649549464
-0.0722160551
-0.0783271530
-0.0837887724
-0.0892617150
-0.0955670521
-0.1036861246
-0.1147606290
-0.1300931988
-0.1515882345
-0.1889988164
-0.2338501895
-0.2723495973
-0.2934351491
-0.2887758202
-0.2527714516
-0.1825527502
-0.0779812046
0.0583510440
0.2211210221
0.4022748902
0.5910279430
0.7722215281
0.9102984146
0.9768808798
0.9594296788
0.8592505141
0.6914940362
0.4847585052
0.2677118719
0.0621532243
-0.1150791847
-0.2533900445
-0.3484265688
-0.4019967067
-0.4175893823
-0.4043119498
-0.3728558377
-0.3321258765
-0.2892402988
-0.2495307390
-0.2165422336
-0.1920332211
-0.1753956612
-0.1644959047
-0.1576736082
-0.1535148145
-0.1508519167
-0.1487636587
-0.1465751345
-0.1438577888
-0.1404294168
-0.1363541642
-0.1319293941
-0.1270866501
-0.1216179120
-0.1154647904
-0.1085777798
-0.1009167002
-0.0924504927
-0.0831569381
-0.0730226534
-0.0620430918
-0.0502225424
-0.0375741308
-0.0241198185
-0.0098904034
0.0051739756
0.0211612522
0.0378660473
0.0550807527
0.0726056157
0.0902487397
0.1078260840
0.1251614636
0.1420865496
0.1584408689
0.1740718041
0.1888345939
0.2025923328
0.2152159713
0.2265843156
0.2365840425
0.2451098564
0.2520644291
0.2573582902
0.2609098251
0.2626452752
0.2624987375
0.2604121652
0.2563353672
0.2502063430
0.2419897194
0.2318826354
0.2200982958
0.2068420867
0.1923115752
0.1766965096
0.1601788193
0.1429326148
0.1251241877
0.1069120107
0.0884467377
0.0698712037
0.0513204247
0.0329215980
0.0147941018
-0.0029504744
-0.0202079506
-0.0368816705
-0.0528827900
-0.0681302839
-0.0825509459
-0.0960793886
-0.1086580434
-0.1202303149
-0.1307855613
-0.1403825926
-0.1490803406
-0.1569356473
-0.1640034351
-0.1703367068
-0.1759865462
-0.1810021180
-0.1854306673
-0.1893175202
-0.1927060836
-0.1956378450
-0.1981523727
-0.2002873159
-0.2020784043
-0.2035594486
-0.2047623919
-0.2057180818
-0.2064561075
-0.2070041574
-0.2073880011
-0.2076314884
-0.2077565503
-0.2077831984
-0.2077295251
-0.2076117035
-0.2074439874
-0.2072387117
-0.2070062916
-0.2067538986
-0.2064589739
-0.2061226494
-0.2057591245
-0.2053809755
-0.2049991557
-0.2046229956
-0.2042602028
-0.2039168619
-0.2035974346
-0.2033047597
-0.2030400531
-0.2028028398
-0.2025897453
-0.2023946341
-0.2022097083
-0.2020255469
-0.2018311059
-0.2016137185
-0.2013590951
-0.2010513229
-0.2006728664
-0.2002045932
-0.1996260569
-0.1989153898
-0.1980491048
-0.1970020919
-0.1957476179
-0.1943275901
-0.1927397167
-0.1907645657
-0.1882018907
-0.1848761187
-0.1806363499
-0.1753563576
-0.1689345886
-0.1612941627
-0.1523829328
-0.1421747739
-0.1306695681
-0.1178919278
-0.1038911387
-0.0887411596
-0.0725406225
-0.0554128327
-0.0375048294
-0.0190381122
-0.0005370114
0.0174432898
0.0344001542
0.0498834910
0.0634957558
0.0748919503
0.0837796223
0.0899188662
0.0931223225
0.0932551777
0.0902351651
0.0840270216
0.0748946991
0.0632848330
0.0496328777
0.0343622019
0.0178846211
0.0006004517
-0.0171020646
-0.0348467918
-0.0522697000
-0.0690188649
-0.0847544682
-0.0992958778
-0.1127997159
-0.1249359102
-0.1354641724
-0.1442895320
-0.1514625252
-0.1571792036
-0.1617811337
-0.1657553973
-0.1697345915
-0.1744968285
-0.1809657358
-0.1902104561
-0.2034456473
-0.2269856013
-0.2648761003
-0.3061163620
-0.3409835271
-0.3614303862
-0.3610853117
-0.3352526149
-0.2809125692
-0.1967214105
-0.0830113367
0.0582094920
0.2232569532
0.4067709622
0.6013576511
0.7802421390
0.9065593152
0.9577446303
0.9246784331
0.8116859711
0.6365291217
0.4269695170
0.2116125604
0.0135758320
-0.1511422794
-0.2736625769
-0.3522250550
-0.3884349552
-0.3889957807
-0.3656940858
-0.3285111842
-0.2855992830
-0.2432807931
-0.2060482758
-0.1765644436
-0.1556436570
-0.1414759006
-0.1319510021
-0.1256306208
-0.1212962811
-0.1179494429
-0.1148115402
-0.1113238803
-0.1071476345
-0.1021638377
-0.0964733888
-0.0903853907
-0.0838337539
-0.0766064537
-0.0686468729
-0.0599089570
-0.0503572143
-0.0399667161
-0.0287230965
-0.0166225454
-0.0036714253
0.0101139267
0.0247066592
0.0400693580
0.0561701693
0.0730918480
0.0906905946
0.1087652654
0.1271209088
0.1455687653
0.1639262673
0.1820170396
0.1996708987
0.2167238533
0.2330181042
0.2484020442
0.2627302582
0.2758635232
0.2876688081
0.2980192741
0.3067942741
0.3138793535
0.3191662495
0.3225528914
0.3239433975
0.3232470899
0.3202969852
0.3151537414
0.3080162929
0.2990785371
0.2885293342
0.2765525075
0.2633268433
0.2490260905
0.2338189614
0.2178691129
0.2013351219
0.1843705218
0.1671238088
0.1497384422
0.1323528441
0.1151003996
0.0981094569
0.0815033271
0.0654002840
0.0499135648
0.0351513692
0.0212168602
0.0082081636
-0.0037817702
-0.0147124052
-0.0246304522
-0.0335862609
-0.0416294392
-0.0488088537
-0.0551726295
-0.0607681498
-0.0656420566
-0.0698402501
-0.0734078890
-0.0763893905
-0.0788284303
-0.0807679423
-0.0822501190
-0.0833164113
-0.0840075286
-0.0843634387
-0.0844233678
-0.0842258005
-0.0838084800
-0.0832084078
-0.0824618438
-0.0816043065
-0.0806704246
-0.0796710196
-0.0786061258
-0.0774846512
-0.0763148949
-0.0751045615
-0.0738607617
-0.0725900117
-0.0712982338
-0.0699907558
-0.0686723116
-0.0673470406
-0.0660184432
-0.0646892485
-0.0633615481
-0.0620368394
-0.0607160257
-0.0593994160
-0.0580867252
-0.0567770737
-0.0554689881
-0.0541604005
-0.0528486489
-0.0515304772
-0.0502019628
-0.0488396018
-0.0474374779
-0.0460025628
-0.0445307816
-0.0430076843
-0.0414085579
-0.0396984263
-0.0378320504
-0.0357539277
-0.0333982928
-0.0306891172
-0.0275401090
-0.0238547135
-0.0195261127
-0.0144372256
-0.0084607079
-0.0014589523
0.0066890680
0.0160583769
0.0267736528
0.0389084221
0.0524782060
0.0674405198
0.0836948733
0.1010827706
0.1193877103
0.1383351827
0.1575914861
0.1767618048
0.1953928152
0.2129731880
0.2289346311
0.2428103942
0.2542497036
0.2629366710
0.2686446328
0.2712361498
0.2706629644
0.2669657695
0.2602743733
0.2508078080
0.2388743305
0.2248714220
0.2092857880
0.1926933586
0.1757159825
0.1586931169
0.1419962695
0.1259720376
0.1109031211
0.0970083231
0.0844425508
0.0732984465
0.0636095565
0.0553464077
0.0484156302
0.0426599570
0.0378582237
0.0338559052
0.0302978772
0.0257038467
0.0187636078
0.0084461956
-0.0060001141
-0.0250478043
-0.0488901176
-0.0772848803
-0.1050315204
-0.1241928351
-0.1274356332
-0.1080540297
-0.0599694462
0.0222693892
0.1435596423
0.3077408118
0.4996384759
0.6976745881
0.8800922403
1.0249527908
1.1101391291
1.1133662956
1.0256924824
0.8678804182
0.6657560544
0.4483022854
0.2469421419
0.0808125192
-0.0422931311
-0.1195169774
-0.1537410398
-0.1511302112
-0.1231776064
-0.0818813708
-0.0366908924
0.0054931981
0.0403190271
0.0659885263
0.0835079789
0.0950978137
0.1026443119
0.1077207561
0.1115874302
0.1151923007
0.1191728761
0.1238542583
0.1292485505
0.1350573038
0.1412556452
0.1481096277
0.1556822092
0.1640271138
0.1731888321
0.1832026208
0.1940945034
0.2058812694
0.2185704749
0.2321604422
0.2466773717
0.2621972305
0.2785889906
0.2957009322
0.3133798051
0.3314708287
0.3498176919
0.3682625531
0.3866460402
0.4048072507
0.4225831896
0.4398069669
0.4563095409
0.4719203393
0.4864672594
0.4997766680
0.5116734016
0.5219807662
0.5305205372
0.5371129597
0.5415766823
0.5437385827
0.5436224546
0.5413376703
0.5369996574
0.5307298987
0.5226559320
0.5129113503
0.5016358019
0.4889749900
0.4750806730
0.4601106646
0.4442288334
0.4276051034
0.4104154536
0.3928425913
0.3750784728
0.3573220553
0.3397783517
0.3226584297
0.3061794124
0.2905498241
0.2758233672
0.2620114999
0.2491295236
0.2371870793
0.2261881482
0.2161310516
0.2070084508
0.1988073474
0.1915090828
0.1850893385
0.1795181363
0.1747598377
0.1707731445
0.1675110987
0.1649210821
0.1629448167
0.1615183645
0.1605721278
0.1600301632
0.1598071955
0.1598417068
0.1601390222
0.1606681324
0.1613979836
0.1622995301
0.1633457348
0.1645115688
0.1657740118
0.1671120551
0.1685068807
0.1699419484
0.1714027480
0.1728767777
0.1743535441
0.1758245622
0.1772833552
0.1787254550
0.1801484017
0.1815517437
0.1829395897
0.1843094363
0.1856477402
0.1869433023
0.1881880649
0.1893800308
0.1905210770
0.1916156472
0.1926707498
0.1936959578
0.1947034084
0.1957078037
0.1967264101
0.1977790588
0.1988881453
0.2000786298
0.2013780369
0.2028164559
0.2043558751
0.2060309141
0.2080368647
0.2105532165
0.2137424028
0.2177498010
0.2227037326
0.2287154630
0.2358792017
0.2442721022
0.2539542620
0.2649684265
0.2773382494
0.2910694739
0.3061507841
0.3225538081
0.3403968012
0.3593818207
0.3787371868
0.3977651799
0.4158445916
0.4324307254
0.4470553548
0.4593266702
0.4689293600
0.4756246243
0.4792501745
0.4797202337
0.4770255364
0.4712333287
0.4624873682
0.4510079239
0.4370840879
0.4212876270
0.4042972477
0.3867178017
0.3690797755
0.3518385946
0.3353750465
0.3199956531
0.3059326731
0.2933441017
0.2823136709
0.2728508492
0.2648908419
0.2582945910
0.2528487749
0.2482658089
0.2446085467
0.2429376971
0.2396188070
0.2315558306
0.2171202796
0.1961512227
0.1699552858
0.1413066522
0.1144470621
0.0950858133
0.0900098791
0.1053671296
0.1542671230
0.2452282466
0.3795178469
0.5511508325
0.7468881434
0.9462367376
1.1212975545
1.2392392912
1.2772180881
1.2271043029
1.0953816489
0.9031471955
0.6859005037
0.4771650664
0.2950133866
0.1519888130
0.0544319359
0.0024805871
-0.0099301594
0.0075929422
0.0444207416
0.0891516778
0.1332227981
0.1709293722
0.1994248923
0.2187210730
0.2314781336
0.2399412496
0.2455142764
0.2494370999
0.2526865072
0.2559761863
0.2597567263
0.2642156174
0.2692772510
0.2747675198
0.2808915543
0.2877232466
0.2953145373
0.3037090633
0.3129421585
0.3230408537
0.3340238764
0.3459016508
0.3586762982
0.3723787746
0.3869958678
0.4024288088
0.4185702285
0.4353044331
0.4525074040
0.4700469428
0.4877842393
0.5055732745
0.5232597242
0.5406809390
0.5576659449
0.5740354431
0.5896018097
0.6041690964
0.6175330297
0.6294810114
0.6397920514
0.6482418347
0.6547061958
0.6591352497
0.6614950851
0.6617725811
0.6599754068
0.6561320219
0.6502916760
0.6425244092
0.6329210516
0.6215932239
0.6086733366
0.5943145907
0.5786909345
0.5619965156
0.5444458440
0.5262742101
0.5077376948
0.4891131690
0.4706284753
0.4523712483
0.4344861347
0.4171052097
0.4003450382
0.3843066748
0.3690756638
0.3547220391
0.3413003244
0.3288495329
0.3173931676
0.3069392212
0.2974801761
0.2889930042
0.2814391672
0.2747646166
0.2688997934
0.2637596283
0.2592466967
0.2553355917
0.2519905938
0.2491531177
0.2467679652
0.2447833125
0.2431507104
0.2418250846
0.2407647351
0.2399313367
0.2392899389
0.2388089656
0.2384602668
0.2382196034
0.2380664312
0.2379835849
0.2379572739
0.2379770821
0.2380359683
0.2381302655
0.2382596832
0.2384225368
0.2386110904
0.2388181398
0.2390376854
0.2392649315
0.2394962223
0.2397278766
0.2399563176
0.2401791338
0.2403951182
0.2406042677
0.2408077839
0.2410080722
0.2412087425
0.2414146089
0.2416316899
0.2418672080
0.2421295901
0.2424284673
0.2427746751
0.2431802530
0.2436584451
0.2442117831
0.2448618821
0.2457091260
0.2468581590
0.2484140463
0.2504822747
0.2531687521
0.2565798080
0.2608222217
0.2660038455
0.2722336001
0.2796208555
0.2882754029
0.2983074551
0.3098276459
0.3230339309
0.3377984772
0.3537189117
0.3703931389
0.3874194256
0.4043960919
0.4209215380
0.4365945309
0.4510142162
0.4637801177
0.4744921378
0.4827505571
0.4881560345
0.4903096074
0.4888064406
0.4833890938
0.4745088657
0.4627289995
0.4485835975
0.4325796487
0.4151972458
0.3968873835
0.3780718396
0.3591431744
0.3404647309
0.3223706352
0.3051657956
0.2891259035
0.2744974331
0.2614976409
0.2501183569
0.2401426678
0.2316863755
0.2246413550
0.2186555873
0.2131331592
0.2072342635
0.1998751986
0.1897283690
0.1752557135
0.1553079343
0.1300396239
0.1016192882
0.0743120651
0.0544757497
0.0505598721
0.0703166809
0.1232641702
0.2170870068
0.3527494398
0.5244952763
0.7198478822
0.9198873958
1.0934722798
1.2058043392
1.2363644847
1.1797336494
1.0455926952
0.8582729780
0.6450907691
0.4317735921
0.2392234269
0.0815519366
-0.0339195324
-0.1065815173
-0.1375454552
-0.1352287996
-0.1106749108
-0.0732429733
-0.0306050669
0.0112549156
0.0480374803
0.0771272396
0.0976312965
0.1113291153
0.1202863031
0.1259646949
0.1295988330
0.1321959666
0.1345360526
0.1371717547
0.1404284442
0.1444041992
0.1489698055
0.1538306211
0.1591805909
0.1651646862
0.1718399907
0.1792541177
0.1874452100
0.1964419400
0.2062635098
0.2169196511
0.2284106063
0.2407260828
0.2538447066
0.2677354993
0.2823726700
0.2978828512
0.3141424344
0.3309466579
0.3480977442
0.3654048998
0.3826843154
0.3997591659
0.4164596314
0.4326229229
0.4480932417
0.4627217732
0.4763666868
0.4888931362
0.5001732592
0.5100861776
0.5185179973
0.5253618084
0.5305176852
0.5338926859
0.5354008529
0.5349632223
0.5325085334
0.5279605550
0.5211458104
0.5122124749
0.5013927398
0.4889098702
0.4749782041
0.4598031530
0.4435812018
0.4264999085
0.4087379046
0.3904648947
0.3718416569
0.3530200425
0.3341429762
0.3153444559
0.2967495528
0.2784744114
0.2606262498
0.2433033589
0.2265951033
0.2105819208
0.1953353224
0.1809178925
0.1673832744
0.1547746271
0.1431232575
0.1324512225
0.1227727777
0.1140554211
0.1062316380
0.0992357861
0.0930045793
0.0874770871
0.0825947353
0.0783013053
0.0745428905
0.0712677821
0.0684265927
0.0659722906
0.0638602003
0.0620480021
0.0604957323
0.0591657832
0.0580229031
0.0570341961
0.0561691226
0.0553994987
0.0546994964
0.0540456569
0.0534189836
0.0528072555
0.0522011644
0.0515937580
0.0509804400
0.0503589702
0.0497294640
0.0490944747
0.0484740919
0.0478724651
0.0472780434
0.0466812480
0.0460744720
0.0454520809
0.0448104124
0.0441477760
0.0434644537
0.0427626993
0.0420467390
0.0413227710
0.0405989656
0.0398854654
0.0391943850
0.0385398111
0.0379377966
0.0374047204
0.0369550702
0.0366047521
0.0363716443
0.0362755971
0.0363384330
0.0365839467
0.0370379048
0.0377280462
0.0386053567
0.0397200794
0.0412926733
0.0435184047
0.0465662367
0.0505787306
0.0556720463
0.0619359421
0.0694337744
0.0782024984
0.0882526673
0.0995684328
0.1121075450
0.1258013524
0.1405548018
0.1562464403
0.1727293381
0.1898324014
0.2070875005
0.2239164452
0.2397962163
0.2542590000
0.2668921874
0.2773383752
0.2852953649
0.2905161634
0.2928089829
0.2920372404
0.2881195585
0.2810203605
0.2708553503
0.2580822244
0.2431777517
0.2265989261
0.2087829663
0.1901473158
0.1710896433
0.1519878422
0.1332000309
0.1150645525
0.0978999748
0.0820043977
0.0673947494
0.0540276008
0.0421438695
0.0318508682
0.0231200663
0.0157870893
0.0095517193
0.0039778952
-0.0015062879
-0.0076085784
-0.0151725925
-0.0251780306
-0.0387405743
-0.0571117502
-0.0817206442
-0.1119276271
-0.1416519631
-0.1643028864
-0.1734797714
-0.1629721329
-0.1267596265
-0.0590120479
0.0459106666
0.1926719391
0.3723071299
0.5675188832
0.7588859254
0.9248694350
1.0418130428
1.0839528267
1.0361055235
0.9143087898
0.7393235232
0.5321787447
0.3141715989
0.1068673540
-0.0684020174
-0.2027889675
-0.2970990265
-0.3532487132
-0.3748888616
-0.3674046214
-0.3379154581
-0.2952751526
-0.2499324512
-0.2089823009
-0.1741538276
-0.1462968445
-0.1255906104
-0.1115442332
-0.1029977795
-0.0981211158
-0.0945338065
-0.0913536953
-0.0884388538
-0.0855366000
-0.0824363391
-0.0789695633
-0.0750098521
-0.0704728720
-0.0653163713
-0.0595400884
-0.0531699576
-0.0461582782
-0.0384427109
-0.0299747599
-0.0207183387
-0.0106497697
0.0002422153
0.0119564754
0.0244794606
0.0377852117
0.0518353604
0.0665791293
0.0819533869
0.0978828262
0.1142797926
0.1310442224
0.1480636428
0.1652131717
0.1823558530
0.1994425459
0.2163365533
0.2328070160
0.2486402230
0.2636396109
0.2776257644
0.2904364158
0.3019264456
0.3119678820
0.3204499010
0.3272788266
0.3323781306
0.3356884329
0.3371675009
0.3367902502
0.3345487441
0.3304521937
0.3245269582
0.3168167789
0.3073836621
0.2962642319
0.2835218090
0.2693570135
0.2539664023
0.2375386988
0.2202547931
0.2022877424
0.1838027703
0.1649572676
0.1459007907
0.1267750308
0.1077138024
0.0888430835
0.0702810189
0.0521379202
0.0345162659
0.0175107011
0.0012080377
-0.0143127454
-0.0289805029
-0.0427301371
-0.0554984678
-0.0673015885
-0.0781752109
-0.0881573420
-0.0972868296
-0.1056026296
-0.1131438058
-0.1199495293
-0.1260590793
-0.1315118426
-0.1363473135
-0.1406050941
-0.1443248944
-0.1475465319
-0.1503099317
-0.1526551268
-0.1546222577
-0.1562515729
-0.1575834284
-0.1586582878
-0.1595167226
-0.1601994119
-0.1607471425
-0.1612008089
-0.1615858932
-0.1619014558
-0.1621594554
-0.1623710563
-0.1625437498
-0.1626832871
-0.1627948446
-0.1628830260
-0.1629518622
-0.1630048114
-0.1630447590
-0.1630740176
-0.1630943273
-0.1631068552
-0.1631121954
-0.1631103237
-0.1631005469
-0.1630815868
-0.1630515926
-0.1630081407
-0.1629482347
-0.1628683055
-0.1627642113
-0.1626312374
-0.1624640966
-0.1622569289
-0.1620031655
-0.1616755635
-0.1612686793
-0.1607955754
-0.1602624781
-0.1596673355
-0.1589998130
-0.1582412932
-0.1573648756
-0.1563353771
-0.1551093313
-0.1536349894
-0.1518523194
-0.1496930065
-0.1470804530
-0.1439297784
-0.1401478192
-0.1356331291
-0.1302759788
-0.1239584564
-0.1166135105
-0.1081494623
-0.0984551677
-0.0874669913
-0.0751688059
-0.0615919928
-0.0468154417
-0.0309652786
-0.0142130026
0.0032233875
0.0210783901
0.0390389955
0.0567446855
0.0737874335
0.0897117044
0.1040152515
0.1163312093
0.1263600351
0.1337869399
0.1383826283
0.1400031672
0.1385901330
0.1341706513
0.1268573966
0.1168485929
0.1044280129
0.0899649789
0.0738659769
0.0564908858
0.0383214691
0.0198016392
0.0013253408
-0.0167634688
-0.0341709711
-0.0506534059
-0.0660169820
-0.0801178760
-0.0928622325
-0.1042175620
-0.1143403503
-0.1231465108
-0.1305915304
-0.1367953186
-0.1420422073
-0.1467809506
-0.1516247251
-0.1573511299
-0.1649021863
-0.1753789750
-0.1898980799
-0.2094352612
-0.2337811654
-0.2612902427
-0.2888807474
-0.3120347378
-0.3247980761
-0.3197804287
-0.2915935553
-0.2332414900
-0.1376354082
-0.0033830865
0.1652095386
0.3581383711
0.5597011554
0.7484974760
0.8992051561
0.9883340494
0.9996287817
0.9293457770
0.7863724431
0.5922274170
0.3766970903
0.1655411960
-0.0214009094
-0.1712337088
-0.2780056602
-0.3417148060
-0.3647169256
-0.3574676945
-0.3301528686
-0.2914816764
-0.2486868189
-0.2075242859
-0.1722713650
-0.1457263776
-0.1278587746
-0.1161836085
-0.1087825663
-0.1040621237
-0.1007535451
-0.0979128840
-0.0949209824
-0.0914834713
-0.0876307705
-0.0834645135
-0.0787531742
-0.0734280926
-0.0674310698
-0.0607103339
-0.0532205393
-0.0449227674
-0.0357845262
-0.0257797501
-0.0148888006
-0.0030984655
0.0095980405
0.0232114993
0.0377599257
0.0531667833
0.0693351646
0.0861606768
0.1035315275
0.1213285247
0.1394250770
0.1576871933
0.1759734830
0.1941351561
0.2120160227
0.2294524938
0.2462735377
0.2623003241
0.2773464055
0.2912179328
0.3037136569
0.3146249297
0.3237666019
0.3310595704
0.3364278041
0.3398130754
0.3411770633
0.3405013530
0.3377874357
0.3330571925
0.3263602171
0.3177723273
0.3073894285
0.2953273323
0.2817217566
0.2667283253
0.2505225689
0.2332999239
0.2152757331
0.1966852456
0.1777836166
0.1587543782
0.1397078459
0.1208152679
0.1022332102
0.0841033770
0.0665526112
0.0496928946
0.0336213472
0.0184202279
0.0041569343
-0.0091159976
-0.0213608931
-0.0325549388
-0.0426906125
-0.0517834688
-0.0598713076
-0.0670070528
-0.0732584897
-0.0787048499
-0.0833670411
-0.0872919015
-0.0905471471
-0.0931976387
-0.0953053817
-0.0969295261
-0.0981263468
-0.0989489195
-0.0994471745
-0.0996681777
-0.0996561400
-0.0994524166
-0.0990955075
-0.0986210576
-0.0980618563
-0.0974478378
-0.0968060808
-0.0961608088
-0.0955333902
-0.0949420303
-0.0943945630
-0.0938881047
-0.0934244667
-0.0930056024
-0.0926325484
-0.0923054243
-0.0920234325
-0.0917848584
-0.0915870703
-0.0914265195
-0.0912987404
-0.0911983501
-0.0911190488
-0.0910536196
-0.0909939286
-0.0909309248
-0.0908546402
-0.0907541898
-0.0906177713
-0.0904326657
-0.0901852368
-0.0898609312
-0.0894442787
-0.0889188918
-0.0882676221
-0.0874767444
-0.0865364248
-0.0854478646
-0.0842659350
-0.0828912069
-0.0811975885
-0.0790656781
-0.0763827643
-0.0730428260
-0.0689465323
-0.0640012424
-0.0581210099
-0.0512267318
-0.0432461937
-0.0341138846
-0.0237709839
-0.0121653610
0.0007484244
0.0150091222
0.0306487924
0.0478734424
0.0665310961
0.0859746068
0.1056057044
0.1248779124
0.1432970629
0.1604214182
0.1758610594
0.1892778461
0.2003854163
0.2089491863
0.2147863512
0.2177658842
0.2178085374
0.2148868409
0.2090251036
0.2002994127
0.1888413582
0.1750133365
0.1594271185
0.1426585502
0.1252259906
0.1075903118
0.0901548988
0.0732656495
0.0572109751
0.0422217995
0.0284715598
0.0160762059
0.0050942466
-0.0044713013
-0.0126721806
-0.0196174242
-0.0254286984
-0.0302607827
-0.0347086615
-0.0395025897
-0.0454741961
-0.0535564833
-0.0647838281
-0.0802919810
-0.1013164109
-0.1278653389
-0.1562267459
-0.1813820408
-0.1975011054
-0.1979422950
-0.1752524380
-0.1216633710
-0.0324493696
0.0961660077
0.2615993670
0.4539307592
0.6559036800
0.8429250316
0.9851612579
1.0585320492
1.0480311032
0.9530147838
0.7875645364
0.5803670581
0.3655195822
0.1686825015
0.0075905714
-0.1082933014
-0.1777388484
-0.2031208316
-0.1944853823
-0.1644360225
-0.1234295665
-0.0797761206
-0.0396390835
-0.0070351460
0.0161995972
0.0314492831
0.0412339361
0.0474997735
0.0518125051
0.0553573344
0.0589389767
0.0629830951
0.0675373091
0.0723947247
0.0777720387
0.0837721662
0.0904549676
0.0978741949
0.1060774917
0.1151063930
0.1249963253
0.1357766067
0.1475272290
0.1603282469
0.1740999752
0.1887517015
0.2041854851
0.2202961559
0.2369713153
0.2540913359
0.2715293611
0.2891513058
0.3068158559
0.3243744685
0.3416713717
0.3585435592
0.3748201585
0.3903218654
0.4048620136
0.4182467080
0.4302748245
0.4407380102
0.4494206835
0.4561000338
0.4605185823
0.4625172107
0.4622069351
0.4597155651
0.4551740600
0.4487165293
0.4404802323
0.4306055785
0.4192361272
0.4065185879
0.3926028199
0.3776418327
0.3617917855
0.3452119877
0.3280648988
0.3105161280
0.2927344332
0.2748914780
0.2571615607
0.2397220646
0.2227535228
0.2064396186
0.1909671850
0.1765262052
0.1632053745
0.1509240708
0.1396531100
0.1293616615
0.1200167964
0.1115835504
0.1040251902
0.0973029920
0.0913761338
0.0862016955
0.0817346586
0.0779279064
0.0747322242
0.0720962987
0.0699667187
0.0682879746
0.0670024586
0.0660504679
0.0653710543
0.0649031833
0.0645866236
0.0644118589
0.0643711780
0.0644471751
0.0646238420
0.0648865680
0.0652221398
0.0656187420
0.0660659565
0.0665547627
0.0670775378
0.0676280564
0.0682014906
0.0687944103
0.0694047825
0.0700319723
0.0706767420
0.0713412516
0.0720290586
0.0727451180
0.0735028228
0.0743230738
0.0751886052
0.0760838261
0.0769972107
0.0779229150
0.0788610927
0.0798178951
0.0808054709
0.0818419665
0.0829515258
0.0841642905
0.0855163995
0.0870499895
0.0888131949
0.0908601063
0.0932504503
0.0960497622
0.0992324015
0.1028289867
0.1071506125
0.1124632289
0.1189802114
0.1268623606
0.1362179029
0.1471024898
0.1595191983
0.1734185306
0.1886983374
0.2052036654
0.2227269445
0.2410080298
0.2597342021
0.2785401672
0.2970519307
0.3147710945
0.3309842788
0.3450813980
0.3565680189
0.3650653598
0.3703102912
0.3721553354
0.3705686665
0.3656341107
0.3575511461
0.3466349025
0.3333161618
0.3181086507
0.3014566032
0.2839652198
0.2662007975
0.2486533169
0.2317364430
0.2157880566
0.2010715001
0.1877741711
0.1760071511
0.1658052056
0.1571267839
0.1498540195
0.1438679021
0.1398194136
0.1363388534
0.1316988416
0.1245625909
0.1139839149
0.0994073508
0.0806681344
0.0579920971
0.0319956633
0.0031483898
-0.0222710697
-0.0300913631
-0.0094252240
0.0467622782
0.1416537394
0.2745794198
0.4410172447
0.6325928223
0.8344863072
1.0097680601
1.1224942428
1.1520047154
1.0930090205
0.9555863831
0.7637597409
0.5484344116
0.3387454929
0.1559981589
0.0134905238
-0.0834863577
-0.1355047195
-0.1463535676
-0.1288643454
-0.0944604737
-0.0524547930
-0.0100495631
0.0276635366
0.0577034072
0.0791995305
0.0935952020
0.1039372977
0.1113914988
0.1167996987
0.1209008818
0.1243328220
0.1276326960
0.1312370834
0.1354819670
0.1406027325
0.1467341685
0.1539104667
0.1620652217
0.1710314311
0.1805569492
0.1907851260
0.2018847154
0.2138802645
0.2267785793
0.2405687245
0.2552220231
0.2706920566
0.2869146650
0.3038079467
0.3212722586
0.3391902161
0.3574266931
0.3758288219
0.3942811169
0.4126890210
0.4307764771
0.4482796012
0.4649558853
0.4805841970
0.4949647797
0.5079192528
0.5192906113
0.5289432258
0.5367628431
0.5426565855
0.5465529511
0.5484018140
0.5481744238
0.5458634060
0.5414827619
0.5350678687
0.5266371635
0.5161648448
0.5038887615
0.4900637833
0.4749325307
0.4587253753
0.4416604395
0.4239442344
0.4057744721
0.3873377773
0.3688085266
0.3503488477
0.3321086190
0.3142254700
0.2968247813
0.2800196843
0.2639110614
0.2485875458
0.2341255221
0.2205891254
0.2080302389
0.1964884907
0.1860135267
0.1766225331
0.1682492431
0.1608280274
0.1542958441
0.1485922381
0.1436593417
0.1394418742
0.1358871421
0.1329450390
0.1305670467
0.1287011204
0.1272954894
0.1263009662
0.1256709503
0.1253614284
0.1253309741
0.1255407484
0.1259544994
0.1265385621
0.1272618590
0.1280958995
0.1290147801
0.1299951847
0.1310163840
0.1320602360
0.1331111859
0.1341562660
0.1351850957
0.1361898815
0.1371654171
0.1381090835
0.1390208485
0.1399032672
0.1407640792
0.1416003922
0.1423942633
0.1431331566
0.1438083304
0.1444148285
0.1449514800
0.1454208995
0.1458294870
0.1461874278
0.1465086926
0.1468110378
0.1471160048
0.1474489208
0.1478389134
0.1483189419
0.1489257602
0.1496999072
0.1506857075
0.1519312710
0.1534884932
0.1553604334
0.1576675479
0.1606335069
0.1644530630
0.1692919822
0.1752866489
0.1825413433
0.1911298801
0.2010970784
0.2124587707
0.2252018027
0.2392840336
0.2546343359
0.2711525955
0.2888123683
0.3072639768
0.3258219654
0.3438631221
0.3608287383
0.3762246092
0.3896210333
0.4006528131
0.4090192543
0.4144841664
0.4168758625
0.4160871593
0.4120753769
0.4048623392
0.3945465893
0.3815725239
0.3665639732
0.3500989741
0.3327073928
0.3148706403
0.2970216698
0.2795449768
0.2627765988
0.2470041156
0.2324666493
0.2193548639
0.2077967539
0.1975985833
0.1888302043
0.1815475653
0.1756044946
0.1706528485
0.1661425776
0.1613217265
0.1552364344
0.1467309348
0.1344475555
0.1168267185
0.0926225754
0.0644531484
0.0372716168
0.0169554694
0.0103046536
0.0250413531
0.0698096708
0.1519397861
0.2744705802
0.4352132341
0.6243095250
0.8242248572
1.0097482625
1.1479923995
1.2080266697
1.1804964020
1.0715375013
0.9016909535
0.6956833771
0.4795474593
0.2763060877
0.1027548673
-0.0335851921
-0.1292251205
-0.1842283459
-0.2022106948
-0.1903403915
-0.1586727981
-0.1161465738
-0.0704763429
-0.0275426789
0.0087018845
0.0362328596
0.0549538044
0.0666963226
0.0748757236
0.0808627358
0.0853051095
0.0888947313
0.0921890878
0.0956112654
0.0994499904
0.1038599207
0.1088614796
0.1143434772
0.1203138964
0.1268947839
0.1341426678
0.1421045354
0.1508178331
0.1603104663
0.1706007995
0.1816976565
0.1936003512
0.2062990903
0.2197748568
0.2339991003
0.2489337291
0.2645311108
0.2808438412
0.2978709137
0.3154027687
0.3332368819
0.3511790947
0.3690436147
0.3866530154
0.4038382363
0.4204385829
0.4363017268
0.4512837054
0.4652489222
0.4780701467
0.4896285143
0.4998135266
0.5085230509
0.5156633207
0.5211489355
0.5249028607
0.5268563731
0.5269482283
0.5251248265
0.5213409131
0.5155037440
0.5076058232
0.4978553303
0.4864575810
0.4736103873
0.4595040575
0.4443213959
0.4282377033
0.4114207765
0.3940308915
0.3762205612
0.3581345949
0.3399102927
0.3216774511
0.3035583626
0.2856678162
0.2681130970
0.2509939861
0.2344027612
0.2184241960
0.2031355604
0.1886067113
0.1749017500
0.1620788516
0.1501887441
0.1392815940
0.1293644251
0.1203794915
0.1122689087
0.1049768051
0.0984493218
0.0926346129
0.0874828452
0.0829461985
0.0789788651
0.0755370506
0.0725789730
0.0700648633
0.0679569655
0.0662195362
0.0648188449
0.0637231739
0.0629028185
0.0623300865
0.0619792989
0.0618267893
0.0618508018
0.0620292305
0.0623396140
0.0627614004
0.0632760507
0.0638670387
0.0645198509
0.0652219869
0.0659629588
0.0667342919
0.0675295240
0.0683442060
0.0691759014
0.0700273163
0.0709236679
0.0718518268
0.0727910010
0.0737230137
0.0746323034
0.0755059236
0.0763335430
0.0771074453
0.0778225296
0.0784763100
0.0790689159
0.0796031638
0.0800865155
0.0805313067
0.0809526062
0.0813680980
0.0817980813
0.0822654704
0.0827957948
0.0834171990
0.0841604429
0.0850589014
0.0861485646
0.0874680375
0.0890585407
0.0909511115
0.0930565002
0.0955614090
0.0987096717
0.1027092509
0.1077322383
0.1139148543
0.1213574486
0.1301244994
0.1402446143
0.1517105295
0.1644790743
0.1784699567
0.1935654682
0.2096119336
0.2264198067
0.2437636702
0.2613822357
0.2789827448
0.2961960848
0.3124730542
0.3273023372
0.3402428650
0.3509238162
0.3590446181
0.3643751272
0.3667557798
0.3660972952
0.3623806400
0.3556568934
0.3460196145
0.3338123670
0.3194843660
0.3034695223
0.2861864423
0.2680384280
0.2494134970
0.2306852421
0.2122131589
0.1943415264
0.1773993193
0.1615348964
0.1466605939
0.1331210970
0.1211597398
0.1108873249
0.1022821241
0.0951898778
0.0893237953
0.0842645547
0.0794603030
0.0742266560
0.0677466984
0.0590709837
0.0471175343
0.0286357794
-0.0063969126
-0.0494466164
-0.0903509639
-0.1205606987
-0.1331396754
-0.1227648731
-0.0857271215
-0.0199314916
0.0751037394
0.1982471828
0.3467543385
0.5162675954
0.7008162307
0.8922169948
1.0613370015
1.1745266872
1.2127655501
1.1692824645
1.0495556799
0.8713126039
0.6619909967
0.4458387621
0.2435475885
0.0702515262
-0.0646734852
-0.1576096167
-0.2105477022
-0.2263981565
-0.2138740995
-0.1830614605
-0.1424288423
-0.0988269863
-0.0574883932
-0.0220281544
0.0055559584
0.0250681723
0.0384706009
0.0474144390
0.0532566194
0.0571489288
0.0600380076
0.0626653507
0.0655673068
0.0690750785
0.0733147226
0.0782071500
0.0834689270
0.0890788250
0.0952880970
0.1021524278
0.1097187688
0.1180253371
0.1271016159
0.1369683548
0.1476375693
0.1591125359
0.1713872336
0.1844458391
0.1982636758
0.2128073332
0.2280346669
0.2439990697
0.2607316162
0.2780303651
0.2956976424
0.3135434012
0.3313852219
0.3490483117
0.3663655053
0.3831773998
0.3993328617
0.4146885754
0.4291088520
0.4424656301
0.4546384753
0.4655145804
0.4749887652
0.4829634770
0.4893487897
0.4940624048
0.4970296560
0.4981843792
0.4974698909
0.4948373709
0.4902456260
0.4836056769
0.4749292956
0.4644246468
0.4522954210
0.4387379657
0.4239412859
0.4080870436
0.3913495583
0.3738958066
0.3558854225
0.3374706970
0.3187965787
0.3000006732
0.2812132434
0.2625572096
0.2441481491
0.2260942968
0.2084965446
0.1914484416
0.1750361944
0.1593386628
0.1444262407
0.1303593188
0.1171905595
0.1049652823
0.0937241485
0.0834995708
0.0742432315
0.0658940952
0.0583930620
0.0516829682
0.0457085859
0.0404166233
0.0357557244
0.0316763970
0.0281305124
0.0250716065
0.0224551493
0.0202385468
0.0183811410
0.0168442099
0.0155909671
0.0145865626
0.0137980821
0.0131945472
0.0127469175
0.0124291462
0.0122199329
0.0121003744
0.0120535036
0.0120642890
0.0121196355
0.0122083838
0.0123213102
0.0124511274
0.0125924838
0.0127419638
0.0128980878
0.0130613119
0.0132340283
0.0134205653
0.0136350945
0.0139594242
0.0143816381
0.0148656249
0.0153799858
0.0158980344
0.0163977969
0.0168620122
0.0172781313
0.0176383177
0.0179387453
0.0181782058
0.0183598146
0.0184913993
0.0185855002
0.0186593703
0.0187349747
0.0188389915
0.0190028110
0.0192625362
0.0196589824
0.0202376777
0.0210488626
0.0221475249
0.0235938531
0.0254531096
0.0277952779
0.0306950537
0.0342318454
0.0384897739
0.0435576726
0.0495290874
0.0565022769
0.0645802120
0.0738705762
0.0845113028
0.0965582784
0.1099054857
0.1244145798
0.1399176056
0.1562169976
0.1730855803
0.1902665677
0.2074735639
0.2243905624
0.2406719469
0.2559424906
0.2697973564
0.2818020971
0.2914926554
0.2983796047
0.3021758684
0.3029019056
0.3006322692
0.2954830571
0.2876119124
0.2772180232
0.2645421226
0.2498664890
0.2335149456
0.2158527669
0.1972864176
0.1782638233
0.1592744548
0.1408425278
0.1231911473
0.1064922737
0.0909761382
0.0768070308
0.0640833004
0.0528373549
0.0430356608
0.0345787434
0.0273011784
0.0209713408
0.0152913710
0.0098974521
0.0043598262
-0.0012429697
-0.0081681380
-0.0191969550
-0.0358325757
-0.0582600099
-0.0853461218
-0.1146396307
-0.1423709279
-0.1634514799
-0.1716567799
-0.1637222283
-0.1293484258
-0.0592479489
0.0504952453
0.1984258185
0.3777170519
0.5761708458
0.7762177198
0.9549168125
1.0853198479
1.1470474004
1.1279499559
1.0282829759
0.8613467841
0.6534524530
0.4370892172
0.2372260125
0.0712823365
-0.0511424460
-0.1281643770
-0.1611266614
-0.1595178382
-0.1349307374
-0.0972493147
-0.0546473821
-0.0135880614
0.0211762152
0.0466411784
0.0633475852
0.0739216658
0.0804352742
0.0845624876
0.0875796062
0.0903651532
0.0933998752
0.0967667422
0.1004387098
0.1046215804
0.1093793701
0.1147694884
0.1208433947
0.1276465987
0.1352186601
0.1435931887
0.1527978446
0.1628543378
0.1737911845
0.1857864863
0.1988003897
0.2127096033
0.2273884719
0.2427089759
0.2585407311
0.2747509887
0.2912046355
0.3077641935
0.3242898207
0.3406393100
0.3566680902
0.3722292253
0.3871734150
0.4013489942
0.4146019335
0.4267758389
0.4377119519
0.4472491494
0.4552239438
0.4614704830
0.4658205503
0.4681035645
0.4681237229
0.4656479661
0.4608296977
0.4538794811
0.4450010980
0.4343925921
0.4222462712
0.4087487073
0.3940807361
0.3784174577
0.3619282363
0.3447766999
0.3271207408
0.3091125154
0.2908984440
0.2726192111
0.2544097529
0.2363992356
0.2187110836
0.2014629855
0.1847668938
0.1687290251
0.1534498602
0.1390241438
0.1255408848
0.1130833562
0.1017198907
0.0914007558
0.0820539084
0.0736192594
0.0660384031
0.0592546139
0.0532128464
0.0478597356
0.0431435966
0.0390144246
0.0354238953
0.0323253644
0.0296738680
0.0274261222
0.0255405234
0.0239771484
0.0226977539
0.0216657772
0.0208463355
0.0202062263
0.0197139274
0.0193395967
0.0190553106
0.0188499954
0.0187196934
0.0186566882
0.0186537542
0.0187029516
0.0187963477
0.0189266703
0.0190873116
0.0192723284
0.0194764420
0.0196950378
0.0199241662
0.0201605416
0.0204015431
0.0206452142
0.0208902630
0.0211360618
0.0213826372
0.0216306330
0.0218813442
0.0221544998
0.0224635905
0.0227866342
0.0231112366
0.0234351592
0.0237663186
0.0241227874
0.0245327936
0.0250348427
0.0256786998
0.0265248734
0.0276440332
0.0291170043
0.0310347674
0.0334984586
0.0366193700
0.0405189488
0.0452565677
0.0509425580
0.0578093371
0.0660275509
0.0757045319
0.0868842987
0.0995475567
0.1136116974
0.1289307989
0.1452956257
0.1624336287
0.1800089451
0.1976223988
0.2148114999
0.2310504449
0.2457501169
0.2583481372
0.2684538410
0.2757524493
0.2800176655
0.2811116852
0.2789851960
0.2736773777
0.2653159020
0.2541169330
0.2403851265
0.2245136308
0.2069840861
0.1883666248
0.1693198711
0.1505447233
0.1322539223
0.1147668290
0.0984239721
0.0834756209
0.0700817854
0.0583122163
0.0481464050
0.0394735836
0.0320927249
0.0257125426
0.0199515943
0.0143394232
0.0083161350
0.0015789987
-0.0075587039
-0.0219492431
-0.0426740819
-0.0689763977
-0.0982610821
-0.1260947408
-0.1462056937
-0.1518418575
-0.1362786587
-0.0863226371
0.0055362108
0.1400201201
0.3110635582
0.5058132244
0.7046280497
0.8812337458
1.0048765034
1.0494168547
1.0042127504
0.8751423014
0.6846037797
0.4690339776
0.2599919806
0.0799321220
-0.0571455433
-0.1458599230
-0.1888212331
-0.1915213248
-0.1672553357
-0.1286119264
-0.0855036735
-0.0451670696
-0.0121625233
0.0116256408
0.0271832065
0.0371679474
0.0433187514
0.0470751410
0.0496182152
0.0518706538
0.0544967174
0.0579022478
0.0622346672
0.0673829792
0.0729924074
0.0791386229
0.0860538803
0.0937966503
0.1024135096
0.1119379508
0.1223903460
0.1337779473
0.1460948864
0.1593221752
0.1734288837
0.1886114377
0.2048412288
0.2218455689
0.2393636334
0.2571464608
0.2749569532
0.2925698756
0.3097718567
0.3263613883
0.3421488255
0.3569563866
0.3706181535
0.3829800712
0.3938999480
0.4032474556
0.4109041288
0.4167632766
0.4207283360
0.4227130344
0.4226429058
0.4204553472
0.4160996191
0.4095322533
0.4006718037
0.3897254821
0.3769843509
0.3627250891
0.3472099921
0.3306869719
0.3133895570
0.2955369007
0.2773339990
0.2589717100
0.2406265205
0.2224605340
0.2046214704
0.1872426660
0.1704430740
0.1543272636
0.1389854209
0.1244933482
0.1109125223
0.0982913755
0.0866653052
0.0760553846
0.0664876662
0.0579357209
0.0503213771
0.0435695471
0.0376083559
0.0323691406
0.0277864510
0.0237980491
0.0203449093
0.0173712187
0.0148243765
0.0126549945
0.0108168968
0.0092671200
0.0079659130
0.0068767372
0.0059662665
0.0052043870
0.0045641974
0.0040220086
0.0035573443
0.0031529547
0.0027952142
0.0024741696
0.0021831044
0.0019185142
0.0016801074
0.0014708047
0.0012959692
0.0011491019
0.0010239144
0.0009178859
0.0008295532
0.0007585106
0.0007054103
0.0006719611
0.0006608533
0.0006757069
0.0007211877
0.0008030189
0.0009279816
0.0011039145
0.0013397139
0.0016453337
0.0020308876
0.0024815378
0.0030361179
0.0037631264
0.0047344844
0.0060280630
0.0077278513
0.0099239561
0.0127126022
0.0161961324
0.0204830074
0.0256878056
0.0319312236
0.0393400758
0.0480472944
0.0581919298
0.0699197213
0.0836699355
0.0993269564
0.1163169027
0.1340945614
0.1521433875
0.1699755044
0.1871317039
0.2031814457
0.2177228580
0.2303827372
0.2408166080
0.2487113480
0.2537862058
0.2557893684
0.2544976911
0.2497166976
0.2412903657
0.2295498159
0.2152287732
0.1989850244
0.1814251873
0.1631047107
0.1445278744
0.1261477893
0.1083663974
0.0915344709
0.0759516113
0.0618662507
0.0493855975
0.0383727750
0.0290284322
0.0213733477
0.0151925052
0.0100350937
0.0052145076
-0.0001916888
-0.0073437692
-0.0176354279
-0.0325092154
-0.0533719975
-0.0796214682
-0.1081071980
-0.1331306341
-0.1469240263
-0.1399754829
-0.1020917237
-0.0263959865
0.0904885219
0.2487600530
0.4455084752
0.6484262742
0.8231700510
0.9427021610
0.9872907135
0.9445095719
0.8151622096
0.6288495828
0.4174951426
0.2073492189
0.0189910057
-0.1326714315
-0.2390580808
-0.3015100127
-0.3256073828
-0.3183053140
-0.2879297236
-0.2441773227
-0.1980739138
-0.1578771606
-0.1253070061
-0.1007652115
-0.0838338050
-0.0732750824
-0.0670316064
-0.0624945009
-0.0587009819
-0.0552750514
-0.0518589171
-0.0481761146
-0.0440315078
-0.0393112887
-0.0339829775
-0.0280818644
-0.0215540811
-0.0143218894
-0.0063288522
0.0024699746
0.0121094494
0.0226117144
0.0339858628
0.0462279392
0.0593209395
0.0732348105
0.0879264505
0.1033397090
0.1194053866
0.1361091569
0.1533588440
0.1709446823
0.1886636612
0.2063196404
0.2237233497
0.2406923889
0.2570512278
0.2726312066
0.2872705353
0.3008142941
0.3131144331
0.3240297729
0.3334260039
0.3411756678
0.3471549462
0.3512400176
0.3533130508
0.3531350120
0.3505914684
0.3458791641
0.3391921894
0.3307194864
0.3206448484
0.3091469206
0.2963991995
0.2825700332
0.2678226213
0.2523150151
0.2362001170
0.2196256794
0.2027343056
0.1856634504
0.1685454199
0.1515073720
0.1346713162
0.1181541133
0.1020674759
0.0865179680
0.0716070159
0.0574340178
0.0441006522
0.0317045308
0.0203353904
0.0100026346
0.0006428610
-0.0078065018
-0.0154057046
-0.0222126780
-0.0282830324
-0.0336700576
-0.0384247233
-0.0425956785
-0.0462292522
-0.0493694528
-0.0520579686
-0.0543341674
-0.0562350966
-0.0577954834
-0.0590477345
-0.0600219363
-0.0607458548
-0.0612449359
-0.0615423048
-0.0616587691
-0.0616142891
-0.0614304373
-0.0611271145
-0.0607219015
-0.0602300585
-0.0596645256
-0.0590359224
-0.0583525480
-0.0576200189
-0.0568234329
-0.0559640276
-0.0550556204
-0.0541102173
-0.0531380130
-0.0521473915
-0.0511449304
-0.0501353998
-0.0491217582
-0.0481051532
-0.0470849208
-0.0460585858
-0.0450218620
-0.0439686515
-0.0428910453
-0.0417793232
-0.0406220446
-0.0394062303
-0.0381171405
-0.0367382243
-0.0352511193
-0.0336356522
-0.0318698380
-0.0299300095
-0.0278374516
-0.0254999600
-0.0227498260
-0.0194332139
-0.0154101610
-0.0105545776
-0.0047542469
0.0020891746
0.0100601577
0.0192293000
0.0296533261
0.0413750878
0.0544235636
0.0688138592
0.0845479902
0.1017464191
0.1200625556
0.1388946777
0.1576858416
0.1759224412
0.1931338245
0.2088922928
0.2228131012
0.2345544584
0.2438175269
0.2503464227
0.2539282154
0.2543929283
0.2516135386
0.2455055850
0.2360833253
0.2238586421
0.2094616065
0.1934732244
0.1764254376
0.1588011238
0.1410340965
0.1235091051
0.1065618351
0.0904789074
0.0754978792
0.0618072435
0.0495461280
0.0388034510
0.0296602889
0.0225569579
0.0169662549
0.0120947131
0.0071922964
0.0015523998
-0.0054881510
-0.0145490992
-0.0262067574
-0.0409940071
-0.0594002990
-0.0818716530
-0.1089397060
-0.1400469932
-0.1629567322
-0.1654054590
-0.1384832001
-0.0766334725
0.0223467161
0.1573068677
0.3237429937
0.5137976150
0.7147499031
0.8946096012
1.0188844538
1.0665384932
1.0302366627
0.9163448164
0.7438873419
0.5364405038
0.3207984448
0.1186686402
-0.0545193745
-0.1896140031
-0.2806652918
-0.3279432959
-0.3414536240
-0.3303174448
-0.3025542358
-0.2650817505
-0.2237160976
-0.1831717485
-0.1470615372
-0.1178966607
-0.0970865072
-0.0832173024
-0.0735755793
-0.0668507495
-0.0619347666
-0.0579242548
-0.0541186368
-0.0500193230
-0.0453297117
-0.0399551888
-0.0340031276
-0.0277217586
-0.0209430980
-0.0135496802
-0.0054906380
0.0032761247
0.0127839334
0.0230573426
0.0341121359
0.0459553259
0.0585851546
0.0719910930
0.0861538412
0.1010453285
0.1166287131
0.1328721896
0.1499307519
0.1676898195
0.1859320895
0.2044502423
0.2230516341
0.2415545062
0.2597860345
0.2775823276
0.2947884266
0.3112583056
0.3268548712
0.3414499628
0.3549243525
0.3671677452
0.3780787784
0.3875650223
0.3955429800
0.4019380867
0.4066845972
0.4097254122
0.4110123212
0.4105060464
0.4081762424
0.4040014968
0.3979592774
0.3900560257
0.3804793713
0.3694327153
0.3571112843
0.3436945151
0.3293516699
0.3142452983
0.2985312441
0.2823586456
0.2658699352
0.2492008396
0.2324803802
0.2158308722
0.1993679254
0.1832004439
0.1674306261
0.1521539646
0.1374592464
0.1234285529
0.1101372597
0.0976540368
0.0860410154
0.0753470067
0.0655438308
0.0565803408
0.0484057530
0.0409696471
0.0342219661
0.0281145154
0.0226099760
0.0176758925
0.0132801896
0.0093911558
0.0059774426
0.0030080650
0.0004524015
-0.0017198062
-0.0035384529
-0.0050330701
-0.0062328258
-0.0071665247
-0.0078626081
-0.0083491539
-0.0086537765
-0.0088033179
-0.0088241525
-0.0087417441
-0.0085543139
-0.0082540348
-0.0078410612
-0.0073150121
-0.0066749716
-0.0059194887
-0.0050477155
-0.0040673550
-0.0029899258
-0.0018264385
-0.0005873685
0.0007173438
0.0020782931
0.0034866096
0.0049339581
0.0064125390
0.0079150876
0.0094348745
0.0109657053
0.0125019207
0.0140383968
0.0155705446
0.0170943104
0.0186061755
0.0201031564
0.0215828049
0.0230432077
0.0244763261
0.0258758845
0.0272535996
0.0286275040
0.0300225675
0.0314767878
0.0330380075
0.0347602906
0.0367038875
0.0389352357
0.0415269592
0.0445578690
0.0481129626
0.0522834244
0.0571666257
0.0628661243
0.0694916649
0.0771591790
0.0859907848
0.0961147445
0.1076950238
0.1212668116
0.1366375384
0.1533688636
0.1710433652
0.1892645399
0.2076568031
0.2258654887
0.2435568495
0.2604175670
0.2761501146
0.2904748291
0.3031329248
0.3138865349
0.3225187113
0.3288334244
0.3326555633
0.3338309358
0.3322262685
0.3277292064
0.3202483134
0.3098100666
0.2969751461
0.2823188771
0.2663583207
0.2495648982
0.2323643905
0.2151369385
0.1982170431
0.1818935650
0.1664097249
0.1519631034
0.1387056409
0.1267436379
0.1161380390
0.1069075847
0.1000224877
0.0965188919
0.0944785010
0.0922171536
0.0883886698
0.0819848514
0.0723354821
0.0591083271
0.0423091333
0.0222816293
-0.0002924746
-0.0243934863
-0.0486637322
-0.0714075469
-0.0905911671
-0.1034003727
-0.0992668423
-0.0664384086
0.0023363416
0.1097844787
0.2541087308
0.4289874833
0.6235747790
0.8225001924
1.0055735768
1.1444523602
1.2141803159
1.2024000516
1.1095476067
0.9488524516
0.7460140382
0.5300801844
0.3249708915
0.1484024506
0.0112934226
-0.0822353613
-0.1335043913
-0.1462223405
-0.1312758832
-0.0987328675
-0.0570822554
-0.0132341234
0.0274803381
0.0613088242
0.0861463240
0.1030683715
0.1143462320
0.1217664010
0.1268106254
0.1306564526
0.1341771249
0.1379411148
0.1422121112
0.1469490189
0.1519475988
0.1574374124
0.1635110117
0.1702252275
0.1776295279
0.1857660183
0.1946694417
0.2043671784
0.2148792461
0.2262182968
0.2383895488
0.2513907870
0.2652124308
0.2798782291
0.2954195894
0.3117078784
0.3286057106
0.3459743671
0.3636737959
0.3815626314
0.3994985495
0.4173382351
0.4349370523
0.4521490319
0.4688268718
0.4848219365
0.4999842577
0.5141625337
0.5272041296
0.5389550777
0.5492600768
0.5579624927
0.5649043581
0.5699263725
0.5728719568
0.5737058609
0.5724962613
0.5693209615
