ECG
1.0619229760
1.0044503433
0.8563690735
0.6480501705
0.4129216234
0.1860821587
-0.0062930968
-0.1530066950
-0.2492089289
-0.2958366145
-0.2996130905
-0.2727818608
-0.2283434779
-0.1779202564
-0.1303934254
-0.0913919613
-0.0632925876
-0.0452197749
-0.0332948184
-0.0249027692
-0.0188166054
-0.0138824711
-0.0092156229
-0.0042004303
0.0015096248
0.0079919480
0.0150784261
0.0228344471
0.0314024298
0.0408495244
0.0512262751
0.0625666201
0.0748878919
0.0881908166
0.1024595146
0.1176615004
0.1337476822
0.1506523626
0.1683755226
0.1868438776
0.2058130411
0.2250447224
0.2443077025
0.2633778340
0.2820380413
0.3000783202
0.3172957383
0.3334944349
0.3484856208
0.3620875785
0.3741256623
0.3844310227
0.3928357642
0.3991772249
0.4032998144
0.4050525411
0.4040697732
0.4003479931
0.3941425719
0.3857012123
0.3752639484
0.3630631461
0.3493235026
0.3342620466
0.3180881384
0.3010034699
0.2832020643
0.2648702766
0.2461867932
0.2273226319
0.2084411421
0.1896980048
0.1712412325
0.1532111691
0.1357404902
0.1189542028
0.1029702400
0.0879018935
0.0738557471
0.0609307169
0.0492168348
0.0387306136
0.0293926763
0.0211199540
0.0138325655
0.0074538180
0.0019102060
-0.0028685875
-0.0069496919
-0.0103970488
-0.0132714115
-0.0156303457
-0.0175282291
-0.0190162515
-0.0201424146
-0.0209515324
-0.0214852309
-0.0217819483
-0.0218769347
-0.0218022523
-0.0215867756
-0.0212563062
-0.0208339306
-0.0203396377
-0.0197902274
-0.0191993118
-0.0185773148
-0.0179314728
-0.0172658338
-0.0165812584
-0.0158685292
-0.0150985915
-0.0142963961
-0.0134845365
-0.0126743621
-0.0118659782
-0.0110482460
-0.0101987826
-0.0092839609
-0.0082589099
-0.0070675145
-0.0056424152
-0.0039050089
-0.0017654480
0.0008773590
0.0041357479
0.0081332797
0.0129531457
0.0187182488
0.0257156010
0.0341684888
0.0442292970
0.0559795089
0.0694297062
0.0845195689
0.1011178757
0.1190225036
0.1379604280
0.1575877227
0.1774897873
0.1973307595
0.2164554392
0.2340516329
0.2494329066
0.2620385860
0.2714337566
0.2773092635
0.2794817118
0.2778934659
0.2726126501
0.2638331486
0.2518746435
0.2371689922
0.2201304163
0.2014707787
0.1819116974
0.1620870575
0.1425430114
0.1237379793
0.1060426484
0.0897399735
0.0750251769
0.0620057482
0.0507014443
0.0410442896
0.0328976732
0.0261194774
0.0197685827
0.0126626885
0.0035652389
-0.0088145777
-0.0258218285
-0.0488558363
-0.0784976507
-0.1099519072
-0.1360183457
-0.1487267208
-0.1393373973
-0.0983409562
-0.0161492467
0.1119232722
0.2842893105
0.4901462093
0.7091276504
0.9113036565
1.0571391325
1.1079316183
1.0617811906
0.9315105666
0.7369705368
0.5050399649
0.2696257875
0.0680884184
-0.0867406668
-0.1926269753
-0.2504774072
-0.2650482307
-0.2449450826
-0.2026229678
-0.1531731093
-0.1055917817
-0.0645706864
-0.0327921937
-0.0108867709
0.0025664931
0.0110271342
0.0175128195
0.0227522708
0.0275114701
0.0323782704
0.0377623951
0.0438954390
0.0508308674
0.0584850326
0.0669513867
0.0763173998
0.0866376080
0.0979499199
0.1102756162
0.1236193503
0.1379691477
0.1532964066
0.1695558974
0.1866857628
0.2046085300
0.2233152639
0.2426635438
0.2624184337
0.2823494557
0.3022313025
0.3218438430
0.3409721219
0.3594063602
0.3769419547
0.3933794783
0.4085246799
0.4221884845
0.4341869931
0.4443414827
0.4524784063
0.4584293930
0.4620258882
0.4629558079
0.4612396751
0.4570597511
0.4505980734
0.4420364555
0.4315564870
0.4193395336
0.4055667371
0.3904190152
0.3740772247
0.3567234880
0.3385404976
0.3197107294
0.3004164351
0.2808396426
0.2611621557
0.2415655546
0.2222311952
0.2033402097
0.1850735064
0.1676117695
0.1511354593
0.1358245269
0.1217354564
0.1087996911
0.0969814837
0.0862432070
0.0765453545
0.0678465397
0.0601034966
0.0532710794
0.0473022628
0.0421481417
0.0377579312
0.0340788410
0.0310549297
0.0286276385
0.0267365204
0.0253192483
0.0243116155
0.0236475359
0.0232590432
0.0230768029
0.0230771292
0.0232509210
0.0235725240
0.0240183784
0.0245670182
0.0251990719
0.0258972620
0.0266464056
0.0274334135
0.0282472912
0.0290791380
0.0299221476
0.0307716081
0.0316249015
0.0324815042
0.0333429867
0.0342130619
0.0350981601
0.0360076594
0.0369562643
0.0379609986
0.0390498393
0.0402635413
0.0416556368
0.0432924361
0.0452530267
0.0476292741
0.0505258213
0.0540600890
0.0583622756
0.0635753571
0.0698550872
0.0773699972
0.0863013962
0.0968857425
0.1092288998
0.1232268187
0.1387283656
0.1555367565
0.1734095569
0.1920586818
0.2111504453
0.2303061166
0.2491017200
0.2670676367
0.2836885972
0.2984036818
0.3106063201
0.3196442913
0.3248271593
0.3258366531
0.3229542680
0.3165278371
0.3069256530
0.2945364680
0.2797694941
0.2630544029
0.2448413256
0.2256008530
0.2058240358
0.1860223839
0.1667278673
0.1484929154
0.1318983062
0.1175174749
0.1051838255
0.0945016397
0.0850348660
0.0763074526
0.0678046040
0.0589728291
0.0492199416
0.0379150596
0.0243886059
0.0079323078
-0.0122008027
-0.0367963893
-0.0667273726
-0.0987688654
-0.1184331108
-0.1126901743
-0.0722517522
0.0084288282
0.1311566082
0.2939949984
0.4912657782
0.7125578882
0.9242670767
1.0830356884
1.1600500273
1.1417875593
1.0300170454
0.8419907006
0.6127254163
0.3782876325
0.1657714115
-0.0068104830
-0.1305265860
-0.2015003679
-0.2258221902
-0.2167700554
-0.1859342949
-0.1432022285
-0.0967581646
-0.0530833996
-0.0169562186
0.0086296539
0.0252220545
0.0359644584
0.0430169144
0.0481041594
0.0525156182
0.0571054040
0.0622923176
0.0680598482
0.0743435442
0.0813829398
0.0892482856
0.0979963674
0.1076723962
0.1183100599
0.1299315223
0.1425474239
0.1561568813
0.1707474879
0.1863126879
0.2029476377
0.2205242593
0.2388591264
0.2577683216
0.2770674367
0.2965715725
0.3160953390
0.3354528553
0.3544577495
0.3729231589
0.3906617300
0.4074856183
0.4232064883
0.4376355138
0.4505833775
0.4618604039
0.4712789018
0.4786528832
0.4837959454
0.4864994507
0.4864252467
0.4836732732
0.4784501734
0.4709595214
0.4614018222
0.4499745117
0.4368719566
0.4222854548
0.4064032346
0.3894104555
0.3714892078
0.3528185128
0.3335743224
0.3139295198
0.2940539186
0.2741142637
0.2542742306
0.2346944259
0.2155323869
0.1969425820
0.1790762995
0.1620794740
0.1460929174
0.1312543228
0.1176870453
0.1053588448
0.0941913988
0.0841189626
0.0750770846
0.0670026061
0.0598336618
0.0535096791
0.0479713788
0.0431607745
0.0390211731
0.0354971746
0.0325346717
0.0300808507
0.0280841906
0.0264944636
0.0252627350
0.0243413631
0.0236839994
0.0232455883
0.0229823676
0.0228519357
0.0228148037
0.0228344255
0.0229141921
0.0230725118
0.0232845797
0.0235292850
0.0237893674
0.0240514175
0.0243058771
0.0245470386
0.0247730451
0.0249858911
0.0251914214
0.0253993321
0.0256231700
0.0258803327
0.0261920688
0.0265834776
0.0270835096
0.0277249658
0.0285444982
0.0295826099
0.0308836545
0.0324530071
0.0343502640
0.0368052328
0.0400267911
0.0441980743
0.0494765662
0.0559940995
0.0638568558
0.0731453654
0.0839145074
0.0961935095
0.1099859486
0.1252697499
0.1419971878
0.1601580649
0.1796519548
0.1997576947
0.2197615739
0.2390158639
0.2569388184
0.2730146735
0.2867936475
0.2978919409
0.3059917365
0.3108411994
0.3122544771
0.3101116680
0.3043578876
0.2950026271
0.2823150851
0.2669730885
0.2496489063
0.2309617812
0.2114779296
0.1917105416
0.1721197807
0.1531127846
0.1350436641
0.1182135042
0.1028703631
0.0892103471
0.0780508626
0.0691809751
0.0614776384
0.0539342523
0.0456606623
0.0358831601
0.0239444829
0.0093038141
-0.0084632172
-0.0296645360
-0.0544915554
-0.0830168555
-0.1146670125
-0.1399827528
-0.1449524424
-0.1189653183
-0.0549829311
0.0504608544
0.1972598597
0.3817355924
0.5966358878
0.8172921073
1.0003651787
1.1133363511
1.1368818392
1.0648728233
0.9049998690
0.6876558420
0.4513702782
0.2264560635
0.0345430398
-0.1114219949
-0.2034850205
-0.2424508141
-0.2431354412
-0.2186649590
-0.1800343775
-0.1361085114
-0.0936189153
-0.0571636518
-0.0292072907
-0.0100809095
0.0020179069
0.0103781526
0.0166061701
0.0215123769
0.0257879689
0.0300032179
0.0346074709
0.0399291508
0.0461757557
0.0534338597
0.0616691122
0.0707262382
0.0805604316
0.0913374924
0.1030917936
0.1158370477
0.1295663762
0.1442523095
0.1598468108
0.1762824814
0.1934733810
0.2113133034
0.2296754543
0.2484124480
0.2673563079
0.2863800621
0.3053427843
0.3239445404
0.3419030354
0.3589578843
0.3748706117
0.3894246526
0.4024253516
0.4136999632
0.4230976520
0.4304894923
0.4357684687
0.4388494753
0.4396693164
0.4381867060
0.4343822683
0.4282379034
0.4196118654
0.4087006518
0.3957790498
0.3811108165
0.3649490305
0.3475361248
0.3291038877
0.3098734617
0.2900553443
0.2698493878
0.2494447989
0.2290201393
0.2087433255
0.1887716283
0.1692516738
0.1503194424
0.1321002693
0.1147088446
0.0982492131
0.0828147740
0.0684882817
0.0553472213
0.0434325922
0.0326778368
0.0230083922
0.0143521842
0.0066396325
-0.0001959641
-0.0062187183
-0.0114906840
-0.0160714407
-0.0200180796
-0.0233852032
-0.0262249259
-0.0285868733
-0.0305181827
-0.0320635029
-0.0332649942
-0.0341623286
-0.0347926895
-0.0351907717
-0.0353887819
-0.0354164381
-0.0353009698
-0.0350671182
-0.0347371359
-0.0343307871
-0.0338653475
-0.0333534483
-0.0327257241
-0.0319814805
-0.0311655963
-0.0303150152
-0.0294597024
-0.0286207068
-0.0278099358
-0.0270301553
-0.0262749896
-0.0255289217
-0.0247672929
-0.0239563030
-0.0230530106
-0.0220053323
-0.0207520437
-0.0192227785
-0.0173380291
-0.0150091464
-0.0121383398
-0.0086186770
-0.0043340845
0.0008406530
0.0070140561
0.0143011436
0.0229348003
0.0330832915
0.0448381861
0.0582143712
0.0731517764
0.0895174923
0.1071028750
0.1256226128
0.1447146976
0.1639404250
0.1827843940
0.2007290141
0.2172460635
0.2316442998
0.2433490229
0.2519124225
0.2570135784
0.2584584603
0.2561799279
0.2502377306
0.2408185081
0.2282357899
0.2128656536
0.1951979022
0.1759357815
0.1557240201
0.1351404861
0.1146961867
0.0948352581
0.0759332537
0.0582952922
0.0421591865
0.0276958892
0.0149148731
0.0037391837
-0.0058206257
-0.0140149926
-0.0213652369
-0.0286635614
-0.0369730515
-0.0476276753
-0.0622322835
-0.0826732748
-0.1104382770
-0.1422389739
-0.1725892026
-0.1949716253
-0.2018377300
-0.1846078296
-0.1336710626
-0.0396633953
0.0999175862
0.2801406781
0.4882225087
0.7034763138
0.8973138661
1.0332421072
1.0714567948
1.0089214667
0.8655202807
0.6646557220
0.4331312782
0.2011514388
0.0016477670
-0.1490821826
-0.2499545888
-0.3026779887
-0.3129396106
-0.2904053746
-0.2486123161
-0.2005108181
-0.1540406275
-0.1145109864
-0.0847728854
-0.0652190639
-0.0537840104
-0.0462801356
-0.0407072978
-0.0362891224
-0.0322443229
-0.0279845591
-0.0231103599
-0.0174104174
-0.0108615866
-0.0035771624
0.0045439583
0.0135871298
0.0236029107
0.0346243158
0.0466668157
0.0597283375
0.0737892638
0.0888124338
0.1047431424
0.1215091406
0.1390206357
0.1571808579
0.1759824449
0.1952120686
0.2146002691
0.2338885392
0.2528293242
0.2711860221
0.2887329882
0.3052577567
0.3205645467
0.3344693405
0.3467990590
0.3573915757
0.3660957168
0.3727712613
0.3772889406
0.3795304386
0.3793883921
0.3766215027
0.3710386398
0.3629147123
0.3525272672
0.3401437466
0.3260214873
0.3104077213
0.2935395754
0.2756440714
0.2569381257
0.2376285501
0.2179120510
0.1979752297
0.1779945827
0.1581364990
0.1385554063
0.1193904100
0.1007696001
0.0828109617
0.0656223748
0.0493016141
0.0339363495
0.0196041457
0.0063724624
-0.0057013460
-0.0165720011
-0.0262593073
-0.0348463447
-0.0424163091
-0.0490492858
-0.0548222493
-0.0598090636
-0.0640804821
-0.0677041473
-0.0707445912
-0.0732632354
-0.0753183904
-0.0769652563
-0.0782559227
-0.0792393676
-0.0799604837
-0.0804579872
-0.0807666552
-0.0809181110
-0.0809408672
-0.0808603257
-0.0806987779
-0.0804754044
-0.0802062752
-0.0799043498
-0.0795786134
-0.0791651452
-0.0786586691
-0.0781057263
-0.0775433606
-0.0769991180
-0.0764910470
-0.0760276987
-0.0756081267
-0.0752218867
-0.0748490374
-0.0744601395
-0.0740162564
-0.0734689540
-0.0727603006
-0.0718232285
-0.0705823606
-0.0689530663
-0.0668412175
-0.0641431883
-0.0607458555
-0.0565265984
-0.0513532985
-0.0450843400
-0.0375686095
-0.0286454961
-0.0181443372
-0.0059352860
0.0079469782
0.0233891939
0.0402183842
0.0582018564
0.0770472025
0.0964022988
0.1158553058
0.1349346687
0.1531091171
0.1697876649
0.1843196105
0.1959962894
0.2043285125
0.2091215856
0.2102368269
0.2076482026
0.2014424048
0.1918188519
0.1790896882
0.1636797844
0.1461267370
0.1270808688
0.1072761026
0.0872247850
0.0674498548
0.0484270863
0.0305380782
0.0140702535
-0.0007831400
-0.0139230304
-0.0253445213
-0.0351368915
-0.0434835959
-0.0501636243
-0.0559527057
-0.0629610142
-0.0728255129
-0.0866930420
-0.1052207458
-0.1285756351
-0.1564344485
-0.1883512908
-0.2195876572
-0.2366914081
-0.2282727621
-0.1859616468
-0.1044076988
0.0187197363
0.1827316039
0.3839984718
0.6094654461
0.8169437082
0.9682387802
1.0377690054
1.0125655481
0.8922858684
0.6958753245
0.4639319436
0.2319067023
0.0259569578
-0.1370535518
-0.2494424479
-0.3071219878
-0.3200139855
-0.3024529084
-0.2665840975
-0.2223639091
-0.1775597150
-0.1377499024
-0.1063238738
-0.0844820472
-0.0705666053
-0.0614028836
-0.0552716352
-0.0507749744
-0.0468152183
-0.0425948864
-0.0376167011
-0.0316835874
-0.0248986726
-0.0175420162
-0.0093880444
-0.0003213769
0.0097143552
0.0207578961
0.0328303651
0.0459352573
0.0600582800
0.0751667802
0.0912102719
0.1081206444
0.1258121623
0.1442251124
0.1633422967
0.1829059339
0.2026477644
0.2223108898
0.2416497734
0.2604302398
0.2784294754
0.2954360281
0.3112498070
0.3256820832
0.3385554889
0.3497040182
0.3589730264
0.3662192306
0.3713107092
0.3741269024
0.3745586115
0.3724070141
0.3674477449
0.3599421622
0.3501709043
0.3384037132
0.3248995339
0.3099066863
0.2936628661
0.2763951442
0.2583199674
0.2396431578
0.2205599133
0.2012548072
0.1819017885
0.1626641817
0.1436946868
0.1251353795
0.1071177110
0.0897625081
0.0731799731
0.0574696839
0.0427205941
0.0290110327
0.0164087042
0.0049706890
-0.0052713368
-0.0143740185
-0.0224201867
-0.0294890766
-0.0356566050
-0.0409955174
-0.0455753889
-0.0494626234
-0.0527204543
-0.0554089439
-0.0575849840
-0.0593022954
-0.0606114281
-0.0615597613
-0.0621915033
-0.0625476919
-0.0626661938
-0.0625817049
-0.0623257504
-0.0619266847
-0.0614096912
-0.0607967828
-0.0601068013
-0.0593554179
-0.0585551328
-0.0577032353
-0.0567301859
-0.0556663616
-0.0545560203
-0.0534338107
-0.0523245590
-0.0512433146
-0.0501953509
-0.0491761650
-0.0481714781
-0.0471572349
-0.0460996044
-0.0449549793
-0.0436699761
-0.0421814354
-0.0404164213
-0.0382922223
-0.0357163503
-0.0325865413
-0.0287907552
-0.0242071757
-0.0187042105
-0.0121404911
-0.0043648727
0.0047835653
0.0154755198
0.0278603665
0.0419378655
0.0576135222
0.0747284013
0.0930591437
0.1123179670
0.1321526649
0.1521466076
0.1718187421
0.1906235914
0.2079512551
0.2231274093
0.2354318218
0.2444100835
0.2498356123
0.2515759303
0.2496052464
0.2440044566
0.2349611435
0.2227695769
0.2078307132
0.1906521959
0.1718483551
0.1521402082
0.1322962263
0.1127147740
0.0938641420
0.0761603507
0.0599106339
0.0453128872
0.0324554688
0.0213171939
0.0117673348
0.0035656211
-0.0036377608
-0.0101898692
-0.0163842044
-0.0251303549
-0.0387433418
-0.0582565472
-0.0834217140
-0.1127089465
-0.1433068018
-0.1712335113
-0.1851024660
-0.1726242021
-0.1248551623
-0.0361976960
0.0955999412
0.2694435869
0.4831659791
0.7134867272
0.9117215535
1.0421135825
1.0835154592
1.0293893533
0.8878069596
0.6817343543
0.4488177098
0.2213854592
0.0227887079
-0.1314303040
-0.2335382027
-0.2836104799
-0.2895314933
-0.2653704604
-0.2223643931
-0.1722062735
-0.1239903498
-0.0836926558
-0.0541710105
-0.0351650181
-0.0232960684
-0.0146775315
-0.0084041781
-0.0033851032
0.0012428338
0.0061168272
0.0116467166
0.0180139690
0.0251720060
0.0329953262
0.0416561569
0.0512300800
0.0617688320
0.0733070170
0.0858621068
0.0994344408
0.1140072260
0.1295465370
0.1460013162
0.1633033735
0.1813719577
0.2002050023
0.2196292870
0.2394001064
0.2592796316
0.2790369096
0.2984478636
0.3172952926
0.3353688722
0.3524649807
0.3683853454
0.3829377725
0.3959369374
0.4072043916
0.4165685629
0.4238647549
0.4289351475
0.4316240105
0.4315983725
0.4288803629
0.4236876016
0.4162340185
0.4067298535
0.3953816565
0.3823922877
0.3679609169
0.3522830242
0.3355503998
0.3179511437
0.2996696661
0.2808866872
0.2617792371
0.2425206561
0.2232805945
0.2042251008
0.1855173933
0.1673177097
0.1497829174
0.1330662166
0.1173171175
0.1026814401
0.0892902098
0.0771258191
0.0661176666
0.0562041237
0.0473245229
0.0394191580
0.0324292841
0.0262971179
0.0209658371
0.0163795807
0.0124834494
0.0092235049
0.0065467703
0.0044012300
0.0027358297
0.0015004766
0.0006460391
0.0001243468
-0.0001118680
-0.0001095378
0.0000849893
0.0004263211
0.0008700266
0.0014013441
0.0020438481
0.0027715761
0.0035605269
0.0043904274
0.0052447319
0.0061106227
0.0069790097
0.0078445305
0.0087055506
0.0095641629
0.0104261883
0.0113011754
0.0122024004
0.0131468674
0.0141553081
0.0152521819
0.0164656760
0.0178277055
0.0193739128
0.0211437558
0.0231413472
0.0253981713
0.0281457792
0.0316011835
0.0359560164
0.0413765295
0.0480035940
0.0559527003
0.0653139585
0.0761520980
0.0885064677
0.1023910360
0.1177943906
0.1346797390
0.1530136591
0.1728318012
0.1934499798
0.2140923397
0.2340582374
0.2527222409
0.2695341295
0.2840188945
0.2957767383
0.3044830752
0.3098883576
0.3118160143
0.3101631315
0.3049019753
0.2960800235
0.2838473067
0.2688245532
0.2517757609
0.2333935900
0.2142993441
0.1950429700
0.1761030578
0.1578868410
0.1407301961
0.1248976431
0.1105823451
0.0979061086
0.0869193835
0.0776965236
0.0702178660
0.0636124507
0.0569071733
0.0490964309
0.0391421213
0.0259736435
0.0084881633
-0.0144458533
-0.0438329035
-0.0761773217
-0.1029248802
-0.1153292912
-0.1047274006
-0.0625391873
0.0197322358
0.1494593914
0.3234317781
0.5283840818
0.7439436038
0.9426376712
1.0898936366
1.1453641119
1.0958130589
0.9612657919
0.7659081616
0.5367530172
0.3036402063
0.0990601122
-0.0569224142
-0.1633050539
-0.2219909579
-0.2380247815
-0.2195969672
-0.1780428335
-0.1277433277
-0.0801410939
-0.0393309106
-0.0074849746
0.0149016195
0.0290108788
0.0377019126
0.0443350548
0.0497812078
0.0547518191
0.0598068882
0.0653430943
0.0715937967
0.0786290348
0.0863791152
0.0949097997
0.1043055816
0.1146156754
0.1258729915
0.1380941367
0.1512794138
0.1654128217
0.1804622960
0.1963837345
0.2131203711
0.2306097803
0.2488715211
0.2677284104
0.2869488211
0.3063068678
0.3255824071
0.3445610374
0.3630340991
0.3807986744
0.3976575874
0.4134194041
0.4278984325
0.4409147222
0.4522940649
0.4618679943
0.4694737856
0.4749544562
0.4781587654
0.4788599929
0.4768000630
0.4721775292
0.4652190509
0.4561464905
0.4451740993
0.4325087527
0.4183525761
0.4029030462
0.3863529911
0.3688905904
0.3506993749
0.3319582272
0.3128413808
0.2935184211
0.2741542846
0.2549092593
0.2359389845
0.2173944512
0.1994220016
0.1821633293
0.1657554793
0.1503308482
0.1360171838
0.1229351751
0.1110828746
0.1003779240
0.0907561627
0.0821543272
0.0745100776
0.0677625627
0.0618523985
0.0567210577
0.0523108905
0.0485651445
0.0454279642
0.0428443915
0.0407603652
0.0391227212
0.0378791927
0.0369784099
0.0363699002
0.0360040880
0.0358322949
0.0358067396
0.0358805380
0.0360356770
0.0362754460
0.0365771367
0.0369205602
0.0372881665
0.0376650446
0.0380389225
0.0384001669
0.0387418441
0.0390612052
0.0393597755
0.0396417982
0.0399141550
0.0401863670
0.0404705938
0.0407816343
0.0411369261
0.0415565458
0.0420632091
0.0426822704
0.0434057875
0.0442929888
0.0454849985
0.0471198084
0.0493321564
0.0522535262
0.0560121476
0.0607329964
0.0665377944
0.0735450095
0.0818698553
0.0916242918
0.1029170246
0.1158534344
0.1305675110
0.1472061264
0.1653183843
0.1843738931
0.2038572719
0.2232681504
0.2421211687
0.2599459774
0.2762872379
0.2907046216
0.3027728108
0.3120814982
0.3182353869
0.3208541908
0.3195726339
0.3140017148
0.3044313565
0.2916128183
0.2762456333
0.2589755422
0.2403944936
0.2210406436
0.2013983564
0.1818982038
0.1629170141
0.1447794610
0.1277584191
0.1120730913
0.0978888879
0.0853174273
0.0744165355
0.0654663515
0.0589073067
0.0527741240
0.0452385934
0.0349132471
0.0208513599
0.0025469489
-0.0200652266
-0.0466096647
-0.0762701213
-0.1095911272
-0.1401619939
-0.1490235358
-0.1222278371
-0.0515939762
0.0652919747
0.2250769490
0.4186408864
0.6310967047
0.8417892470
1.0204386795
1.1278956389
1.1417127798
1.0572737648
0.8877099149
0.6639002098
0.4277563724
0.2071453463
0.0219542569
-0.1156965448
-0.2015442681
-0.2391836830
-0.2372201491
-0.2066825805
-0.1615327110
-0.1126769991
-0.0678706401
-0.0317175663
-0.0056704467
0.0118944744
0.0236687782
0.0314372248
0.0366840146
0.0406365623
0.0442661847
0.0482883819
0.0531619265
0.0590887901
0.0660141429
0.0736265575
0.0818591201
0.0909932673
0.1010831529
0.1121651924
0.1242580634
0.1373627051
0.1514623185
0.1665223665
0.1824905738
0.1992969267
0.2168536736
0.2351087269
0.2539932252
0.2732592335
0.2926612114
0.3119620454
0.3309330486
0.3493539610
0.3670129359
0.3837058122
0.3992357341
0.4134140813
0.4260605871
0.4370034099
0.4460791348
0.4531327738
0.4580177657
0.4605959760
0.4606535174
0.4579233224
0.4526091598
0.4449450355
0.4351589551
0.4234729245
0.4101029493
0.3952590350
0.3791451872
0.3619594113
0.3438937127
0.3251340966
0.3058605682
0.2862471327
0.2664617951
0.2466665714
0.2270182191
0.2076686921
0.1887640531
0.1704443650
0.1528436903
0.1360900914
0.1203056310
0.1056063712
0.0921022322
0.0798397290
0.0687493857
0.0587547453
0.0497819142
0.0417595622
0.0346189227
0.0282937924
0.0227205318
0.0178380646
0.0135878782
0.0099140233
0.0067631141
0.0040843286
0.0018294080
-0.0000473431
-0.0015890590
-0.0028365267
-0.0038283351
-0.0046003300
-0.0051855809
-0.0056145847
-0.0059152752
-0.0061130224
-0.0062306329
-0.0062883499
-0.0063038530
-0.0062919547
-0.0062057171
-0.0060352095
-0.0058189851
-0.0055873002
-0.0053621135
-0.0051570869
-0.0049775851
-0.0048206755
-0.0046751284
-0.0045214170
-0.0043317173
-0.0040699081
-0.0036915710
-0.0031439950
-0.0023666222
-0.0012914380
0.0001577774
0.0020655410
0.0045246670
0.0076362666
0.0114994122
0.0161430552
0.0218284215
0.0288228095
0.0373235070
0.0474577910
0.0592829282
0.0727861744
0.0878847750
0.1044259647
0.1221869677
0.1408749975
0.1601272570
0.1795109386
0.1985533453
0.2168292889
0.2335866484
0.2481292961
0.2598895512
0.2684287989
0.2734381138
0.2747369988
0.2722731851
0.2661228321
0.2564905414
0.2437093568
0.2282407645
0.2106589168
0.1914485285
0.1712581985
0.1507284489
0.1304126957
0.1107772488
0.0922013119
0.0749769825
0.0593092521
0.0453160062
0.0330280239
0.0223889784
0.0132871160
0.0055373669
-0.0016497597
-0.0092680894
-0.0184459141
-0.0304464017
-0.0466680736
-0.0686440316
-0.0975396756
-0.1298028983
-0.1590208422
-0.1779029584
-0.1782856928
-0.1511324869
-0.0866126106
0.0220970933
0.1759838731
0.3682112731
0.5831000188
0.7961280167
0.9739303542
1.0749555568
1.0753350063
0.9833528785
0.8157755885
0.5962693129
0.3553999895
0.1306333172
-0.0468947266
-0.1752336423
-0.2540080865
-0.2866306335
-0.2803837104
-0.2464196521
-0.1994816737
-0.1513840075
-0.1081942679
-0.0736530501
-0.0492326691
-0.0341371595
-0.0253022754
-0.0190187821
-0.0143370840
-0.0103895307
-0.0064960116
-0.0021697245
0.0028828247
0.0087618216
0.0153845836
0.0227879380
0.0310865609
0.0403418949
0.0505978745
0.0618809262
0.0741999679
0.0875460955
0.1018921084
0.1171931759
0.1333869594
0.1503936125
0.1681352983
0.1866000013
0.2055641095
0.2247720583
0.2439770404
0.2629410062
0.2814346631
0.2992374763
0.3161376682
0.3319322189
0.3464268657
0.3594361033
0.3707831841
0.3803001177
0.3878276712
0.3932153692
0.3963214937
0.3969996500
0.3948941888
0.3900847133
0.3828216701
0.3733472428
0.3618963066
0.3486965418
0.3339685732
0.3179259932
0.3007753623
0.2827162091
0.2639410297
0.2446352885
0.2249774176
0.2051388173
0.1852838554
0.1655698680
0.1461471590
0.1271590001
0.1087416312
0.0910242597
0.0741290614
0.0581711797
0.0432587261
0.0294927799
0.0169516682
0.0055958457
-0.0046621906
-0.0139051993
-0.0222074153
-0.0296389780
-0.0362669197
-0.0421551647
-0.0473645298
-0.0519527242
-0.0559743497
-0.0594809002
-0.0625207621
-0.0651392143
-0.0673784280
-0.0692774667
-0.0708722866
-0.0721957360
-0.0732775557
-0.0741443789
-0.0748197312
-0.0753240307
-0.0756745878
-0.0758856051
-0.0759681780
-0.0759302941
-0.0757768332
-0.0755095688
-0.0751299204
-0.0746449309
-0.0740602046
-0.0733740030
-0.0725674667
-0.0716682527
-0.0707021403
-0.0696827229
-0.0686114073
-0.0674774143
-0.0662577781
-0.0649173469
-0.0634087824
-0.0616725601
-0.0596369692
-0.0572181127
-0.0543199070
-0.0508340827
-0.0466401836
-0.0416238604
-0.0357453095
-0.0287447236
-0.0203817463
-0.0104913635
0.0010160962
0.0141575916
0.0288837645
0.0450718489
0.0625237361
0.0809659751
0.1000497718
0.1193509899
0.1383708082
0.1566291132
0.1734638379
0.1881863439
0.2002289358
0.2091448614
0.2146083115
0.2164144199
0.2144792638
0.2088398633
0.1996499180
0.1871485285
0.1719132628
0.1545865065
0.1357785903
0.1160677902
0.0960003275
0.0760903687
0.0568175320
0.0386201121
0.0218572669
0.0064649663
-0.0072418328
-0.0190185035
-0.0288547725
-0.0369747202
-0.0438367809
-0.0501337425
-0.0567927467
-0.0649752888
-0.0760772180
-0.0917287370
-0.1138696132
-0.1521555553
-0.1985496106
-0.2361802928
-0.2517759800
-0.2356649146
-0.1817752036
-0.0876348180
0.0456284066
0.2132867703
0.4070127088
0.6148818011
0.8190572941
0.9764302476
1.0496155883
1.0221679435
0.8976550648
0.6996578277
0.4663998306
0.2332775752
0.0278104246
-0.1324941503
-0.2401459983
-0.2967911784
-0.3074467488
-0.2863955867
-0.2472564926
-0.2009984969
-0.1559408594
-0.1177530697
-0.0894548469
-0.0707706599
-0.0587293364
-0.0510919058
-0.0460054486
-0.0419901296
-0.0379424654
-0.0331463130
-0.0272625280
-0.0203252243
-0.0127121424
-0.0043358750
0.0050159089
0.0153966780
0.0268421980
0.0393705314
0.0529820375
0.0676593728
0.0833674902
0.1000536397
0.1176473683
0.1360605196
0.1552340598
0.1751406322
0.1955129045
0.2160745272
0.2365589803
0.2567095735
0.2762794462
0.2950315675
0.3127387361
0.3291860739
0.3441803216
0.3575415299
0.3690995798
0.3786941819
0.3861748766
0.3914010337
0.3942418530
0.3945763637
0.3921178156
0.3867405314
0.3787412215
0.3684095257
0.3560244352
0.3418542924
0.3261567907
0.3091789749
0.2911572407
0.2723173350
0.2528743562
0.2330327533
0.2129863270
0.1929182289
0.1730009617
0.1533963794
0.1342544266
0.1157079386
0.0978770805
0.0808717502
0.0647913969
0.0497248230
0.0357501817
0.0229349777
0.0113360647
0.0009718108
-0.0082313703
-0.0163606483
-0.0234998563
-0.0297294902
-0.0351267092
-0.0397653357
-0.0437158550
-0.0470454159
-0.0498178299
-0.0520935720
-0.0539297802
-0.0553802555
-0.0564954622
-0.0573225276
-0.0579052424
-0.0582836262
-0.0584919491
-0.0585603108
-0.0585154732
-0.0583808616
-0.0581765641
-0.0579193321
-0.0576225802
-0.0572918306
-0.0568533824
-0.0563213980
-0.0557435147
-0.0551570830
-0.0545891666
-0.0540565429
-0.0535657027
-0.0531128501
-0.0526839026
-0.0522544911
-0.0517899600
-0.0512453672
-0.0505654836
-0.0496847940
-0.0485274963
-0.0470075020
-0.0450285387
-0.0424846688
-0.0392599267
-0.0352284125
-0.0302541872
-0.0241910298
-0.0168824333
-0.0081616036
0.0021482174
0.0141791427
0.0279242894
0.0432962497
0.0601378609
0.0782222058
0.0972526126
0.1168626548
0.1366161514
0.1560071665
0.1744600098
0.1913292364
0.2058996465
0.2174477126
0.2255937965
0.2301211362
0.2309178938
0.2279829896
0.2214261357
0.2114678127
0.1984392535
0.1827824440
0.1650501225
0.1459057801
0.1261236604
0.1064376166
0.0872093950
0.0689199814
0.0519527738
0.0365765926
0.0229456816
0.0110997070
0.0009637580
-0.0076516531
-0.0150505913
-0.0216516989
-0.0274002726
-0.0342411609
-0.0452711025
-0.0621680577
-0.0851814405
-0.1131321193
-0.1434123662
-0.1722979088
-0.1930067456
-0.1910055095
-0.1547549209
-0.0771258148
0.0446008520
0.2087340006
0.4091724304
0.6332906697
0.8409299219
0.9901475808
1.0537867203
1.0195060491
0.8897836585
0.6873252743
0.4538751324
0.2248802687
0.0259466869
-0.1271606412
-0.2272442569
-0.2729303951
-0.2776454184
-0.2548197992
-0.2158824624
-0.1702609567
-0.1253826165
-0.0866738533
-0.0575595346
-0.0386635722
-0.0263402490
-0.0182373664
-0.0125526665
-0.0078742586
-0.0031806194
0.0021594068
0.0083866081
0.0153514053
0.0228445523
0.0311558811
0.0403636779
0.0505235157
0.0616746059
0.0738397978
0.0870255793
0.1012220760
0.1164030523
0.1325259103
0.1495316908
0.1674022925
0.1861282972
0.2054700649
0.2251835734
0.2450310316
0.2647808299
0.2842077332
0.3030928940
0.3212238520
0.3383945346
0.3544052564
0.3690627195
0.3821800135
0.3935766153
0.4030783892
0.4105175871
0.4157328481
0.4185691989
0.4187904473
0.4160826043
0.4106801532
0.4028575608
0.3928801572
0.3810041360
0.3674765540
0.3525353316
0.3364090103
0.3193147465
0.3014593396
0.2830404405
0.2642465633
0.2452570856
0.2262422485
0.2073631563
0.1887717770
0.1706109416
0.1530143449
0.1361065448
0.1200029628
0.1048098837
0.0906244558
0.0775346906
0.0656194633
0.0549379533
0.0454453318
0.0370519468
0.0296718574
0.0232224808
0.0176245933
0.0128023295
0.0086831829
0.0051981655
0.0022832772
-0.0001211705
-0.0020712878
-0.0036194815
-0.0048147669
-0.0057028009
-0.0063258817
-0.0067229487
-0.0069295828
-0.0069780061
-0.0068970823
-0.0067123161
-0.0064458539
-0.0061164832
-0.0057396328
-0.0053273732
-0.0048884159
-0.0044265437
-0.0039005066
-0.0033205062
-0.0027189214
-0.0021183367
-0.0015315427
-0.0009615354
-0.0004015435
0.0001647010
0.0007630738
0.0014292418
0.0022086664
0.0031566029
0.0043381009
0.0058280045
0.0077109517
0.0100813748
0.0130435004
0.0167113494
0.0212087366
0.0266692715
0.0332363574
0.0410631920
0.0503127672
0.0611578692
0.0737937648
0.0885936415
0.1053039919
0.1234493620
0.1425590002
0.1621668569
0.1818115845
0.2010364818
0.2193888651
0.2364202912
0.2516867924
0.2647486147
0.2751706400
0.2825224519
0.2863783362
0.2863172808
0.2819275573
0.2733416197
0.2613437368
0.2466936043
0.2300902704
0.2121721353
0.1935169516
0.1746418240
0.1560032096
0.1379969174
0.1209581090
0.1051612980
0.0908203502
0.0780884836
0.0670582687
0.0577616279
0.0515736375
0.0479050415
0.0435661520
0.0362000245
0.0242923874
0.0071716413
-0.0149911406
-0.0411822123
-0.0695451557
-0.0973808798
-0.1212405902
-0.1340480150
-0.1196496810
-0.0657502267
0.0337929952
0.1789699175
0.3636177593
0.5754210251
0.7950844590
0.9828385006
1.0970624554
1.1148702882
1.0325458946
0.8655431010
0.6457659339
0.4097145444
0.1890017691
0.0055464340
-0.1284981034
-0.2107436572
-0.2436043654
-0.2367640046
-0.2050553026
-0.1606851895
-0.1132301187
-0.0696360671
-0.0342185348
-0.0086625451
0.0083696952
0.0199421683
0.0277316224
0.0331334039
0.0373129571
0.0412058239
0.0455176438
0.0507241541
0.0570711896
0.0645746828
0.0730206641
0.0820359597
0.0918592287
0.1026522899
0.1144538120
0.1272818789
0.1411339933
0.1559870767
0.1717974692
0.1885009300
0.2060126368
0.2242271861
0.2430185933
0.2622639378
0.2819013390
0.3016631919
0.3212636572
0.3404331095
0.3589181374
0.3764815436
0.3929023447
0.4079757714
0.4215132683
0.4333424940
0.4433073211
0.4512678362
0.4571003400
0.4606972904
0.4619662910
0.4608302065
0.4570271218
0.4505047431
0.4415580067
0.4304705495
0.4175143953
0.4029499544
0.3870260243
0.3699797890
0.3520368193
0.3334110729
0.3143048941
0.2949090143
0.2754025512
0.2559530098
0.2367162815
0.2178366447
0.1994467644
0.1816676925
0.1646088678
0.1483681155
0.1330316480
0.1186740643
0.1053584991
0.0931396367
0.0820638685
0.0721295635
0.0632624840
0.0553851075
0.0484232012
0.0423058224
0.0369653181
0.0323373251
0.0283607704
0.0249778706
0.0221341321
0.0197783514
0.0178626148
0.0163422983
0.0151760680
0.0143258797
0.0137569793
0.0134379022
0.0133404740
0.0134398100
0.0137143155
0.0141456855
0.0147189050
0.0154220586
0.0162419480
0.0171639770
0.0181818348
0.0193227998
0.0205599595
0.0218604836
0.0231997004
0.0245610969
0.0259363185
0.0273251696
0.0287356128
0.0301837696
0.0316939200
0.0332985027
0.0350381149
0.0369615124
0.0391256098
0.0415954801
0.0444443551
0.0477536251
0.0516014393
0.0559891882
0.0611719782
0.0674257811
0.0749681030
0.0839616003
0.0945144507
0.1066764408
0.1204387543
0.1357339726
0.1524360741
0.1703604350
0.1892638286
0.2088444257
0.2288306696
0.2487680820
0.2677999066
0.2851702136
0.3002407875
0.3124911268
0.3215184445
0.3270376678
0.3288814379
0.3270001106
0.3214617558
0.3124521574
0.3002748139
0.2853193608
0.2680032348
0.2490877617
0.2293007318
0.2092778996
0.1895651171
0.1706184723
0.1528042847
0.1363990997
0.1215896887
0.1084730494
0.0970564052
0.0872572058
0.0789031269
0.0719462776
0.0665403469
0.0602086655
0.0507783529
0.0368479066
0.0177872017
-0.0062625087
-0.0343885935
-0.0649457220
-0.0957446876
-0.1137042373
-0.1050907115
-0.0603153552
0.0260657098
0.1553524644
0.3247012576
0.5271236157
0.7494745751
0.9534002458
1.0970161841
1.1540833222
1.1142283126
0.9829422579
0.7817779386
0.5482996232
0.3167644116
0.1122754114
-0.0492182624
-0.1604164285
-0.2170223210
-0.2301922835
-0.2135739308
-0.1787738045
-0.1353573729
-0.0908490307
-0.0507320994
-0.0184488273
0.0045996109
0.0193677583
0.0291685942
0.0357830431
0.0405413193
0.0445181540
0.0485326923
0.0531482856
0.0586724887
0.0651570591
0.0723979572
0.0802287966
0.0889156690
0.0985217061
0.1090888247
0.1206422802
0.1331906666
0.1467259165
0.1612233009
0.1766414296
0.1929222509
0.2099910515
0.2277930617
0.2462894321
0.2652548177
0.2844561027
0.3036660388
0.3226640625
0.3412366747
0.3591763230
0.3762813059
0.3923557726
0.4072097230
0.4206590083
0.4325253299
0.4426362406
0.4508251438
0.4569312936
0.4607997951
0.4622450663
0.4609737872
0.4571150945
0.4508682316
0.4424303624
0.4319965707
0.4197598607
0.4059111568
0.3906393035
0.3741310657
0.3565711283
0.3381420966
0.3190244904
0.2993964118
0.2794333547
0.2593086644
0.2391931724
0.2192552425
0.1996611455
0.1805750721
0.1621591333
0.1445733604
0.1279757048
0.1125220381
0.0983264309
0.0853299210
0.0734761687
0.0627126064
0.0529866247
0.0442455723
0.0364367560
0.0295074408
0.0234048500
0.0180761650
0.0134685252
0.0095290284
0.0062047305
0.0034426459
0.0011897829
-0.0006068324
-0.0020002100
-0.0030434018
-0.0037895014
-0.0042916444
-0.0046030082
-0.0047768118
-0.0048402587
-0.0047796378
-0.0046169732
-0.0043729807
-0.0040658432
-0.0037112107
-0.0033222002
-0.0029093958
-0.0024808487
-0.0020420769
-0.0015960657
-0.0011432675
-0.0006816016
-0.0002064544
0.0002893208
0.0008154033
0.0013840056
0.0020098798
0.0027103221
0.0035051716
0.0044148220
0.0054262529
0.0066315771
0.0081618762
0.0101462100
0.0127116165
0.0159831120
0.0200836912
0.0251343270
0.0312539706
0.0385595515
0.0471659774
0.0571861345
0.0687308870
0.0819090776
0.0968973640
0.1137012771
0.1318461201
0.1508450998
0.1702193882
0.1894981231
0.2082184073
0.2259252398
0.2421714512
0.2565178221
0.2685330988
0.2777939931
0.2838851823
0.2863993095
0.2849320259
0.2792019042
0.2697113361
0.2571155349
0.2420317054
0.2250390437
0.2066787376
0.1874539659
0.1678298991
0.1482336990
0.1290545189
0.1106435034
0.0933137887
0.0773405022
0.0629607627
0.0503736807
0.0395080330
0.0301697838
0.0222094261
0.0151462191
0.0081668059
0.0001250842
-0.0104578710
-0.0253977175
-0.0463458670
-0.0731346233
-0.1035421551
-0.1333281906
-0.1562340180
-0.1639824853
-0.1462779999
-0.0940862615
-0.0001956370
0.1406314993
0.3242676895
0.5371433785
0.7562469146
0.9491245489
1.0759448155
1.1122558286
1.0538601544
0.9094239603
0.7003746671
0.4609011298
0.2324100433
0.0358778355
-0.1165855109
-0.2190249772
-0.2719584776
-0.2823709164
-0.2604696898
-0.2189110583
-0.1700399004
-0.1229472505
-0.0834702985
-0.0541923905
-0.0344430282
-0.0212877431
-0.0127253431
-0.0071166748
-0.0031091955
0.0003611455
0.0040699068
0.0085041551
0.0138624648
0.0200549185
0.0267990115
0.0342993812
0.0426783947
0.0519896260
0.0622705325
0.0735426541
0.0858117873
0.0990677001
0.1132840891
0.1284185799
0.1444127271
0.1611920145
0.1787424039
0.1969731503
0.2156462324
0.2345295043
0.2533971665
0.2720297650
0.2902141923
0.3077436863
0.3244178314
0.3400425574
0.3544301406
0.3673992028
0.3787747121
0.3883879825
0.3960766739
0.4016849105
0.4050634709
0.4060532176
0.4043259783
0.3999670409
0.3931951639
0.3842249379
0.3732667851
0.3605269601
0.3462075490
0.3305064701
0.3136174736
0.2957301414
0.2770298878
0.2576979585
0.2379114315
0.2178432166
0.1976620556
0.1775325221
0.1576150218
0.1380657923
0.1190369030
0.1006762553
0.0831275826
0.0665304499
0.0510199468
0.0367261101
0.0237160865
0.0119252942
0.0012805823
-0.0082892084
-0.0168531622
-0.0244782890
-0.0312295240
-0.0371697276
-0.0423596858
-0.0468581099
-0.0507216364
-0.0540048274
-0.0567601703
-0.0590380777
-0.0608868877
-0.0623528639
-0.0634801949
-0.0643109951
-0.0648853039
-0.0652410862
-0.0654142324
-0.0654385581
-0.0653458040
-0.0651653363
-0.0649235276
-0.0646445013
-0.0643438660
-0.0639535756
-0.0634851870
-0.0629778997
-0.0624632979
-0.0619653505
-0.0615004112
-0.0610772183
-0.0606968951
-0.0603529494
-0.0600312739
-0.0597101459
-0.0593602276
-0.0589445659
-0.0584185924
-0.0577301234
-0.0568193600
-0.0556188882
-0.0540536784
-0.0520410860
-0.0494908512
-0.0463050986
-0.0423832093
-0.0376880212
-0.0319760264
-0.0249820222
-0.0165085362
-0.0064260481
0.0053269348
0.0187438782
0.0337502202
0.0502033719
0.0678927169
0.0865396116
0.1057973852
0.1252513395
0.1444548585
0.1628993535
0.1798544999
0.1946781957
0.2068395333
0.2159187991
0.2216074738
0.2237082325
0.2221349443
0.2169126726
0.2081775823
0.1961247713
0.1812646900
0.1642418841
0.1456615715
0.1260896422
0.1060526586
0.0860378548
0.0664931376
0.0478270855
0.0304089495
0.0145852028
0.0006476633
-0.0114900674
-0.0220578061
-0.0313875333
-0.0399133933
-0.0481716944
-0.0568009083
-0.0665416706
-0.0782367809
-0.0928312022
-0.1113720616
-0.1350086497
-0.1650283832
-0.1991753367
-0.2256296537
-0.2330929083
-0.2125365941
-0.1572023158
-0.0626017878
0.0734831643
0.2510006037
0.4701649436
0.7005008952
0.8946909960
1.0192271904
1.0546538539
0.9955677937
0.8506182480
0.6425448184
0.4082008519
0.1806060057
-0.0171656475
-0.1699899466
-0.2706926427
-0.3200493989
-0.3267857903
-0.3027256306
-0.2597468575
-0.2102154742
-0.1631868190
-0.1244062278
-0.0963083481
-0.0780168946
-0.0658675230
-0.0576625160
-0.0520009477
-0.0476604373
-0.0436844744
-0.0393824195
-0.0343295034
-0.0283668278
-0.0216013648
-0.0142171968
-0.0059958997
0.0031420105
0.0132477854
0.0243552101
0.0364806035
0.0496228182
0.0637632407
0.0788657909
0.0948769228
0.1117256239
0.1293234156
0.1476274913
0.1665922642
0.1859513062
0.2054405409
0.2248070114
0.2438089887
0.2622160671
0.2798091657
0.2963805278
0.3117337210
0.3256836376
0.3380564939
0.3486898309
0.3574325138
0.3641447324
0.3686980006
0.3709751569
0.3708703641
0.3681676549
0.3626857749
0.3546966749
0.3444782179
0.3322978062
0.3184123823
0.3030684280
0.2865017288
0.2689364440
0.2505859135
0.2316530165
0.2123301720
0.1927993387
0.1732320150
0.1537892387
0.1346215876
0.1158691790
0.0976616700
0.0801182571
0.0633476767
0.0474482049
0.0325076573
0.0186033893
0.0058022958
-0.0058391883
-0.0162927616
-0.0256191400
-0.0339013161
-0.0412191618
-0.0476494271
-0.0532657392
-0.0581386036
-0.0623352235
-0.0659187171
-0.0689487593
-0.0714818795
-0.0735712183
-0.0752666241
-0.0766148199
-0.0776594070
-0.0784408640
-0.0789965474
-0.0793606916
-0.0795644087
-0.0796356883
-0.0795993982
-0.0794772836
-0.0792879677
-0.0790469513
-0.0787666129
-0.0784480409
-0.0780245601
-0.0775196096
-0.0769750239
-0.0764231652
-0.0758869229
-0.0753797139
-0.0749055551
-0.0744594126
-0.0740269316
-0.0735842853
-0.0730981741
-0.0725258258
-0.0718149957
-0.0709039666
-0.0697215484
-0.0681870787
-0.0662104225
-0.0636919720
-0.0605226471
-0.0565838950
-0.0517476901
-0.0458765346
-0.0388234579
-0.0304320168
-0.0205362955
-0.0089553711
0.0044201347
0.0194625190
0.0359750536
0.0537124527
0.0723808731
0.0916379182
0.1110926566
0.1303056088
0.1487887257
0.1660051919
0.1813694565
0.1942474054
0.2039563672
0.2099813447
0.2122634630
0.2108178870
0.2057496628
0.1972537961
0.1856152514
0.1712089527
0.1544997832
0.1360425854
0.1164821610
0.0965532710
0.0768621867
0.0577902243
0.0397753285
0.0231492788
0.0081372256
-0.0051423103
-0.0166775414
-0.0265640260
-0.0350042523
-0.0423073389
-0.0487880225
-0.0539837136
-0.0609985075
-0.0727916906
-0.0908302531
-0.1150888888
-0.1440499951
-0.1747036731
-0.2025477278
-0.2235954980
-0.2260222676
-0.1940321593
-0.1182164990
0.0043816306
0.1702673895
0.3694941812
0.5856636518
0.7954448926
0.9610141317
1.0453799653
1.0304605977
0.9177545423
0.7283431637
0.4986269716
0.2642570533
0.0538065334
-0.1139594903
-0.2301075163
-0.2951210541
-0.3127396280
-0.2961534740
-0.2591868657
-0.2131059535
-0.1666187646
-0.1258752034
-0.0944670509
-0.0731491729
-0.0592137146
-0.0502825512
-0.0444596446
-0.0402042996
-0.0363311641
-0.0320102288
-0.0267668279
-0.0204816382
-0.0133906797
-0.0057436237
0.0027975716
0.0123093319
0.0228399447
0.0344202216
0.0470634975
0.0607656314
0.0755050058
0.0912425271
0.1079216254
0.1254682544
0.1437913163
0.1628921022
0.1826275818
0.2027257832
0.2229244693
0.2429711367
0.2626230168
0.2816470751
0.2998200114
0.3169282599
0.3327679890
0.3471451016
0.3598752347
0.3707837597
0.3797064846
0.3864952080
0.3910147460
0.3931396764
0.3927247811
0.3894101539
0.3833492343
0.3748285761
0.3641246295
0.3515037416
0.3372221561
0.3215260133
0.3046513503
0.2868241007
0.2682600949
0.2491650598
0.2297346192
0.2101542934
0.1905994994
0.1712355509
0.1522176581
0.1336909280
0.1157903644
0.0986408676
0.0823572344
0.0670435437
0.0527877726
0.0396644092
0.0277378003
0.0170610518
0.0076240780
-0.0006587451
-0.0078749824
-0.0141089435
-0.0194416831
-0.0239510005
-0.0277114400
-0.0307942908
-0.0332675869
-0.0351961071
-0.0366413750
-0.0376616594
-0.0383119736
-0.0386440758
-0.0387064693
-0.0385444020
-0.0381998667
-0.0377116012
-0.0371150881
-0.0364425547
-0.0357225204
-0.0349754014
-0.0342154176
-0.0334534920
-0.0326972640
-0.0319183883
-0.0310650546
-0.0301796043
-0.0292985466
-0.0284483298
-0.0276453417
-0.0268959098
-0.0261963005
-0.0255327199
-0.0248813136
-0.0242081662
-0.0234693021
-0.0226106850
-0.0215682178
-0.0202677431
-0.0186250427
-0.0165458379
-0.0139257892
-0.0106504969
-0.0065955003
-0.0016265377
0.0043976553
0.0116264117
0.0202190910
0.0303451131
0.0421679265
0.0557192471
0.0709332999
0.0876760848
0.1057434358
0.1248610218
0.1446843457
0.1647987454
0.1847193927
0.2038912943
0.2216892911
0.2374180588
0.2503735445
0.2601386462
0.2664146758
0.2690143936
0.2678683753
0.2630250114
0.2546505073
0.2430288836
0.2285620892
0.2117713658
0.1932968035
0.1738963287
0.1542813596
0.1348521078
0.1161322552
0.0985466561
0.0824104720
0.0679291720
0.0551985326
0.0442046377
0.0348238788
0.0268229546
0.0198588715
0.0135689201
0.0073998710
-0.0012556081
-0.0144443324
-0.0331839608
-0.0574629958
-0.0862407838
-0.1175034205
-0.1446146490
-0.1561622543
-0.1421631268
-0.0944084160
-0.0064633328
0.1263334322
0.3091626365
0.5270854032
0.7439882809
0.9281170475
1.0526309756
1.0956028321
1.0400188779
0.8856194450
0.6717904169
0.4376082374
0.2136422224
0.0219596112
-0.1238744327
-0.2185916934
-0.2604087719
-0.2609724514
-0.2346785633
-0.1935259481
-0.1471164551
-0.1026549428
-0.0649492784
-0.0364103037
-0.0170513130
-0.0043373582
0.0042605497
0.0102970659
0.0150416940
0.0194788608
0.0243079387
0.0299432453
0.0365140439
0.0438645432
0.0517961405
0.0605663542
0.0702508006
0.0808987041
0.0925425193
0.1051979301
0.1188638506
0.1335224245
0.1491390253
0.1656622564
0.1830239508
0.2011613277
0.2200518921
0.2394856650
0.2592313368
0.2790622673
0.2987565039
0.3180968881
0.3368710603
0.3548714589
0.3718953208
0.3877446812
0.4022263737
0.4151520303
0.4263380812
0.4356057551
0.4427810789
0.4476948781
0.4501185887
0.4498452540
0.4470286422
0.4418440998
0.4344678549
0.4250770160
0.4138495730
0.4009643965
0.3866012383
0.3709407310
0.3541643885
0.3364545895
0.3179942757
0.2989669746
0.2795570841
0.2599498862
0.2403315628
0.2208891831
0.2018106969
0.1832849353
0.1655016103
0.1486513150
0.1329255233
0.1184169309
0.1050562429
0.0928131011
0.0816546983
0.0715455645
0.0624475665
0.0543199084
0.0471191309
0.0407991122
0.0353110670
0.0306035474
0.0266224424
0.0233109778
0.0206097270
0.0184568377
0.0167880295
0.0155363695
0.0146322616
0.0140034466
0.0135787405
0.0133454098
0.0132871571
0.0133776411
0.0135926947
0.0139103242
0.0143107097
0.0147762053
0.0152913386
0.0158428113
0.0164194985
0.0170124493
0.0176148865
0.0182222067
0.0188319803
0.0194439514
0.0200600380
0.0206843316
0.0213230978
0.0219877570
0.0226976124
0.0234631272
0.0243065484
0.0252639495
0.0263853241
0.0277345268
0.0293892250
0.0314408983
0.0339948392
0.0371701526
0.0410997557
0.0459303785
0.0518225634
0.0589506652
0.0675010642
0.0776051107
0.0893461491
0.1027543366
0.1177879359
0.1343333154
0.1522049494
0.1711454175
0.1908254054
0.2108437042
0.2307270991
0.2499271788
0.2678198700
0.2837089990
0.2968545013
0.3067965649
0.3132943969
0.3162006596
0.3154671278
0.3111446888
0.3033833422
0.2924322002
0.2786394873
0.2624525406
0.2444178096
0.2251808561
0.2054863546
0.1860701784
0.1671226724
0.1491355799
0.1325451410
0.1176396474
0.1045594433
0.0932969246
0.0836965395
0.0754549389
0.0681259708
0.0611218323
0.0537071567
0.0450140039
0.0338310627
0.0173579070
-0.0057687425
-0.0347023931
-0.0663867804
-0.0955587796
-0.1152680090
-0.1143176588
-0.0821007729
-0.0111079772
0.1030725208
0.2617549319
0.4658449959
0.6906201216
0.8966353677
1.0521663477
1.1333081439
1.1239753075
1.0161668068
0.8270614804
0.5981618021
0.3642873962
0.1517815458
-0.0214816026
-0.1460965146
-0.2204772689
-0.2458618051
-0.2351708969
-0.2018678576
-0.1570639676
-0.1095184749
-0.0656385950
-0.0294795104
-0.0027443715
0.0152992490
0.0274589766
0.0357794822
0.0418298488
0.0468552049
0.0517767244
0.0571916266
0.0633731760
0.0702706827
0.0776255435
0.0856397219
0.0944148225
0.1040037785
0.1144531507
0.1257962398
0.1380525183
0.1512275173
0.1653128485
0.1802863002
0.1961118397
0.2127933261
0.2303108738
0.2484767649
0.2670998785
0.2859899186
0.3049574131
0.3238137146
0.3423710000
0.3604422704
0.3778413516
0.3943828935
0.4098823704
0.4241560811
0.4370211488
0.4482955208
0.4577979692
0.4653480331
0.4707628784
0.4738119973
0.4742802052
0.4722845898
0.4679704841
0.4614861294
0.4529826750
0.4426141782
0.4305376044
0.4169128271
0.4019026278
0.3856726962
0.3683916298
0.3502309345
0.3313650241
0.3119712204
0.2922297534
0.2723237610
0.2524392893
0.2327652926
0.2134936329
0.1948190806
0.1769393139
0.1600549193
0.1443274942
0.1297039781
0.1161578693
0.1036699735
0.0922173134
0.0817735080
0.0723088050
0.0637896753
0.0561787913
0.0494350268
0.0435134573
0.0383653601
0.0339382138
0.0301756987
0.0270176967
0.0244002913
0.0222557675
0.0205126120
0.0190955131
0.0179268080
0.0169827821
0.0162488640
0.0156957703
0.0152964557
0.0150261126
0.0148621747
0.0147845822
0.0147759833
0.0148213108
0.0149077357
0.0150246666
0.0151637501
0.0153188708
0.0154861510
0.0156639508
0.0158528683
0.0160557395
0.0162776382
0.0165316774
0.0168395492
0.0171921256
0.0175896748
0.0180457956
0.0185874176
0.0192548008
0.0201015361
0.0211945449
0.0226140792
0.0244537217
0.0268203856
0.0298343142
0.0336289872
0.0383510396
0.0441306165
0.0510480649
0.0593369230
0.0691779258
0.0806764642
0.0938626489
0.1086913108
0.1250420007
0.1427189895
0.1614512679
0.1808925467
0.2006212566
0.2201405483
0.2389316948
0.2565251557
0.2722131826
0.2853816820
0.2955436059
0.3023389514
0.3055347614
0.3050251239
0.3008311724
0.2931010828
0.2821096454
0.2682578265
0.2520735327
0.2340629360
0.2147696464
0.1948594970
0.1749135926
0.1554278502
0.1368129986
0.1193945789
0.1034129440
0.0890232588
0.0762955006
0.0652144582
0.0556797328
0.0475320247
0.0405377689
0.0337606826
0.0260744280
0.0162721721
0.0030665871
-0.0149101502
-0.0391377576
-0.0699629679
-0.1021768372
-0.1289465503
-0.1428395391
-0.1358251672
-0.0992749798
-0.0239713873
0.0967493408
0.2613442226
0.4604659755
0.6766337156
0.8842329574
1.0495156142
1.1326978013
1.1171486683
1.0114564091
0.8328673908
0.6068755155
0.3672222205
0.1505317701
-0.0272167141
-0.1578874320
-0.2388132818
-0.2730364357
-0.2691773290
-0.2380455060
-0.1924166476
-0.1432774067
-0.0984376233
-0.0625279353
-0.0369993793
-0.0201289287
-0.0088634261
-0.0014930548
0.0034974774
0.0073347367
0.0109565634
0.0150120716
0.0198616497
0.0255769600
0.0319452318
0.0389533793
0.0467974017
0.0555362435
0.0652142082
0.0758609576
0.0874915126
0.1001062525
0.1136909154
0.1282165982
0.1436397561
0.1599022064
0.1769943099
0.1948683550
0.2133138700
0.2321213383
0.2510842685
0.2699984849
0.2886630870
0.3068806347
0.3244571481
0.3412021080
0.3569284556
0.3714525925
0.3845943808
0.3961771428
0.4060276616
0.4139761804
0.4198564033
0.4235054943
0.4246766666
0.4232225615
0.4193156842
0.4131350395
0.4048593312
0.3946669619
0.3827360321
0.3692432887
0.3543623037
0.3382658622
0.3211264484
0.3031162455
0.2844071358
0.2651707008
0.2455782209
0.2258006757
0.2060087438
0.1863728030
0.1670629300
0.1482489009
0.1301001905
0.1127859728
0.0964751212
0.0813332108
0.0673933208
0.0545917871
0.0428790804
0.0322053231
0.0225202892
0.0137734045
0.0059137464
-0.0011099554
-0.0073486464
-0.0128516334
-0.0176682069
-0.0218480057
-0.0254408414
-0.0284962390
-0.0310639281
-0.0331939868
-0.0349368413
-0.0363432662
-0.0374643845
-0.0383516674
-0.0390569344
-0.0396323533
-0.0401291546
-0.0405346949
-0.0408450660
-0.0410829974
-0.0412683580
-0.0414181563
-0.0415465400
-0.0416647966
-0.0417813528
-0.0419017748
-0.0420287682
-0.0421619523
-0.0422973647
-0.0424280388
-0.0425441479
-0.0426330043
-0.0426790599
-0.0426639062
-0.0425662740
-0.0423620336
-0.0420241946
-0.0415229064
-0.0408343106
-0.0400006214
-0.0388717706
-0.0372566002
-0.0349796085
-0.0318809500
-0.0278164352
-0.0226575310
-0.0162913604
-0.0086207025
0.0004360074
0.0109446777
0.0229555608
0.0365032527
0.0516056211
0.0682631237
0.0866474310
0.1063246387
0.1265522133
0.1466491301
0.1659960094
0.1840351779
0.2002706696
0.2142682249
0.2256552912
0.2341210227
0.2394162803
0.2413536319
0.2398073522
0.2347134225
0.2260695312
0.2139494818
0.1988768221
0.1816069374
0.1628283325
0.1431602695
0.1231527676
0.1032866031
0.0839733093
0.0655565057
0.0483155414
0.0324616854
0.0181369639
0.0054141602
-0.0057031855
-0.0152622239
-0.0231072905
-0.0301269083
-0.0375294881
-0.0464538683
-0.0579693143
-0.0730755192
-0.0927026030
-0.1177111132
-0.1488614278
-0.1821836524
-0.2083043852
-0.2183197697
-0.2040884687
-0.1582316645
-0.0741330586
0.0540614844
0.2301104175
0.4384270362
0.6542353275
0.8511012048
1.0009367134
1.0740014588
1.0419150243
0.9134077143
0.7210715591
0.4956044462
0.2653750271
0.0564227178
-0.1083667437
-0.2214078912
-0.2854262833
-0.3058119746
-0.2909077368
-0.2520090597
-0.2031920215
-0.1556797695
-0.1142988117
-0.0817598853
-0.0589379003
-0.0448719398
-0.0367652594
-0.0308826981
-0.0262536733
-0.0222297116
-0.0182494848
-0.0138945784
-0.0088910596
-0.0031094775
0.0034351372
0.0106995722
0.0188055395
0.0278228257
0.0378016509
0.0487733812
0.0607505282
0.0737267495
0.0876768483
0.1025567735
0.1183036200
0.1348356283
0.1520521847
0.1698346546
0.1881445014
0.2068048740
0.2255385050
0.2440821811
0.2621867432
0.2796170863
0.2961514505
0.3115787554
0.3257009719
0.3383341249
0.3493082678
0.3584672508
0.3656688290
0.3707848095
0.3737010536
0.3743174770
0.3725291924
0.3679971496
0.3608422180
0.3513476271
0.3397858358
0.3264185317
0.3114966318
0.2952602817
0.2779388563
0.2597509596
0.2409044244
0.2215963128
0.2020129156
0.1823297530
0.1627115740
0.1433123962
0.1242756699
0.1057341401
0.0878097809
0.0706137952
0.0542466151
0.0387979019
0.0243465455
0.0109606653
-0.0013023906
-0.0123962742
-0.0223206364
-0.0311509967
-0.0389688011
-0.0458523659
-0.0518768780
-0.0571143943
-0.0616338423
-0.0655010200
-0.0687785954
-0.0715261072
-0.0737999643
-0.0756534461
-0.0771367022
-0.0782967527
-0.0791773519
-0.0798183630
-0.0802562547
-0.0805243656
-0.0806528896
-0.0806686586
-0.0805951945
-0.0804528852
-0.0802589885
-0.0800276329
-0.0797694746
-0.0794244935
-0.0789822379
-0.0784909777
-0.0779894193
-0.0775067051
-0.0770624138
-0.0766665605
-0.0763195961
-0.0760124082
-0.0757263204
-0.0754330923
-0.0750949202
-0.0746644363
-0.0740847090
-0.0732892529
-0.0722020772
-0.0707376496
-0.0688008742
-0.0662870911
-0.0630820766
-0.0590620435
-0.0540936406
-0.0480339529
-0.0407305018
-0.0320212447
-0.0217340703
-0.0097408676
0.0039265390
0.0191593595
0.0357880006
0.0535820658
0.0722503553
0.0914408662
0.1107407923
0.1296765242
0.1477136493
0.1642569517
0.1786504125
0.1901811768
0.1983804535
0.2030461354
0.2040364327
0.2013239772
0.1949958164
0.1852532988
0.1724120695
0.1569021892
0.1392681399
0.1201688245
0.1003350610
0.0802685209
0.0605017488
0.0415083971
0.0236675757
0.0072638511
-0.0075127528
-0.0205667552
-0.0318972184
-0.0415977472
-0.0498564899
-0.0563917779
-0.0622232745
-0.0693786977
-0.0794264605
-0.0934748584
-0.1121718643
-0.1357052626
-0.1638027531
-0.1961517085
-0.2267270151
-0.2421067489
-0.2313026699
-0.1862408677
-0.1017617607
0.0243799032
0.1915150470
0.3961394740
0.6209134921
0.8238784988
0.9695578137
1.0333449407
1.0015035692
0.8718984354
0.6697879194
0.4372512488
0.2084632341
0.0085934189
-0.1461939199
-0.2464836664
-0.2927827624
-0.2990267643
-0.2779493940
-0.2404870817
-0.1957789645
-0.1511669170
-0.1121955639
-0.0826122387
-0.0635858255
-0.0513301625
-0.0433592681
-0.0378478610
-0.0333699706
-0.0288989371
-0.0238074112
-0.0178673544
-0.0112500387
-0.0040839414
0.0038974274
0.0127657600
0.0225764632
0.0333687986
0.0451658821
0.0579746840
0.0717860294
0.0865748437
0.1023020136
0.1189133493
0.1363965110
0.1547747602
0.1738038884
0.1932295000
0.2128053328
0.2322932571
0.2514632763
0.2700935268
0.2879702775
0.3048879306
0.3206490211
0.3350642168
0.3479523183
0.3591402595
0.3684631068
0.3757640596
0.3808944503
0.3837137441
0.3840895393
0.3817145259
0.3764922058
0.3687241832
0.3587019938
0.3467036321
0.3329945112
0.3178286054
0.3014484627
0.2840852909
0.2659590310
0.2472782139
0.2282399433
0.2090298961
0.1898223216
0.1707800422
0.1520544530
0.1337855222
0.1161017904
0.0991203715
0.0829469519
0.0676757910
0.0533897210
0.0401601469
0.0280470468
0.0170989712
0.0073401840
-0.0012892810
-0.0088759194
-0.0155028006
-0.0212490107
-0.0261898924
-0.0303973820
-0.0339400142
-0.0368829213
-0.0392878340
-0.0412130808
-0.0427135884
-0.0438408814
-0.0446430826
-0.0451649126
-0.0454476903
-0.0455293326
-0.0454443542
-0.0452238681
-0.0448955853
-0.0444838147
-0.0440094634
-0.0434900365
-0.0429395963
-0.0423091728
-0.0415861960
-0.0408200315
-0.0400504952
-0.0393077556
-0.0386113288
-0.0379704859
-0.0373849372
-0.0368448438
-0.0363308436
-0.0358140918
-0.0352562044
-0.0346092474
-0.0338157373
-0.0328086411
-0.0315113758
-0.0298378089
-0.0276922584
-0.0249694923
-0.0215547292
-0.0173236380
-0.0121424528
-0.0059254227
0.0015400789
0.0105045105
0.0211350864
0.0335157767
0.0476473073
0.0634471600
0.0807494567
0.0993036373
0.1187749243
0.1387452775
0.1587134122
0.1781171243
0.1964549720
0.2129793755
0.2270086073
0.2380008093
0.2455539926
0.2494060378
0.2494346947
0.2456575826
0.2382321899
0.2274558745
0.2137452578
0.1975356410
0.1795522230
0.1605075733
0.1410348339
0.1216877196
0.1029405172
0.0851880864
0.0687458592
0.0538498814
0.0406573399
0.0292210216
0.0193890194
0.0111421942
0.0041967438
-0.0020775560
-0.0086573363
-0.0168656310
-0.0283718763
-0.0451817766
-0.0686193218
-0.0973431729
-0.1276837147
-0.1537348501
-0.1673540009
-0.1581621071
-0.1164613106
-0.0332568200
0.0987750278
0.2767793515
0.4876034382
0.7077967433
0.9037680042
1.0372501206
1.0800360567
1.0220299094
0.8718259456
0.6567084928
0.4204016302
0.1969217863
0.0076237421
-0.1339030384
-0.2223796729
-0.2608378613
-0.2585812118
-0.2270489703
-0.1809021589
-0.1315970412
-0.0871040978
-0.0519080270
-0.0270077445
-0.0101931896
0.0010928328
0.0086179747
0.0138756188
0.0180893404
0.0222129071
0.0269302790
0.0326556090
0.0395332600
0.0474380904
0.0559891251
0.0652526809
0.0754749056
0.0867077954
0.0989825534
0.1123096800
0.1266790112
0.1420597185
0.1584003092
0.1756286259
0.1936518469
0.2123564862
0.2316284373
0.2514017431
0.2714192581
0.2914042351
0.3110926042
0.3302329731
0.3485866268
0.3659275280
0.3820423168
0.3967303106
0.4098035044
0.4210864870
0.4304149277
0.4376357413
0.4426084692
0.4452053305
0.4452156256
0.4423522129
0.4368457315
0.4289594443
0.4189482098
0.4070584821
0.3935283112
0.3785873428
0.3624568182
0.3453495746
0.3274700448
0.3090142574
0.2901698366
0.2711160026
0.2520235710
0.2330549533
0.2143641568
0.1960967844
0.1783900347
0.1613727021
0.1451653051
0.1298827087
0.1156340194
0.1025200464
0.0906278631
0.0799465721
0.0703949560
0.0618937470
0.0543667784
0.0477409850
0.0419464021
0.0369161665
0.0325865157
0.0288967885
0.0257894245
0.0232099645
0.0211070503
0.0194324246
0.0181409315
0.0171905156
0.0165422230
0.0161602007
0.0160116965
0.0160670596
0.0162997401
0.0166861347
0.0172019898
0.0178222853
0.0185249249
0.0192909129
0.0201073610
0.0210260371
0.0220306685
0.0230763345
0.0241279177
0.0251601041
0.0261573827
0.0271140459
0.0280341894
0.0289317119
0.0298303156
0.0307635058
0.0317745912
0.0329166835
0.0342526979
0.0358553527
0.0378071696
0.0402004733
0.0431373919
0.0467298568
0.0510961401
0.0562714189
0.0625068810
0.0700906967
0.0792297699
0.0900497186
0.1025947063
0.1168275261
0.1326297037
0.1498014989
0.1680619051
0.1870486499
0.2063181944
0.2253457340
0.2435309218
0.2603635443
0.2751770412
0.2873257133
0.2963066976
0.3017599667
0.3034683293
0.3013574298
0.2954957488
0.2860946023
0.2735081426
0.2582332052
0.2409045954
0.2222252820
0.2026983703
0.1829747023
0.1636384431
0.1451726184
0.1279591145
0.1122786779
0.0983109157
0.0861342955
0.0757261455
0.0669626540
0.0596188701
0.0534504616
0.0476277660
0.0406531426
0.0310722045
0.0174885689
-0.0014361427
-0.0269899478
-0.0578098226
-0.0874757113
-0.1083219637
-0.1118156722
-0.0885565975
-0.0283009873
0.0764235902
0.2280026643
0.4204723993
0.6373902876
0.8518352205
1.0264074687
1.1212444403
1.1173140326
1.0142734972
0.8309264150
0.6035521946
0.3685098229
0.1549845626
-0.0176211346
-0.1401842142
-0.2085085259
-0.2311287073
-0.2208687820
-0.1890515188
-0.1454984311
-0.0985297779
-0.0549645629
-0.0201205350
0.0032636172
0.0184232911
0.0281790844
0.0347063454
0.0396783365
0.0442662341
0.0491391285
0.0544643913
0.0602878179
0.0668193219
0.0741394860
0.0823171144
0.0914092333
0.1014610905
0.1125061557
0.1245661203
0.1376508973
0.1517586218
0.1668758625
0.1830974386
0.2003872991
0.2185578391
0.2374212588
0.2567895631
0.2764745615
0.2962878365
0.3160391271
0.3355355642
0.3545838919
0.3729906589
0.3905622128
0.4071045709
0.4224234221
0.4363242549
0.4486123620
0.4590928412
0.4675705951
0.4738503307
0.4777365241
0.4788587693
0.4771474956
0.4728364682
0.4661537840
0.4573218712
0.4465574899
0.4340717315
0.4200700192
0.4047521077
0.3883120833
0.3709383639
0.3528137324
0.3341173896
0.3150261464
0.2957114328
0.2763390104
0.2570689724
0.2380557433
0.2194480797
0.2013890693
0.1840161317
0.1674610180
0.1518498108
0.1373029244
0.1239351046
0.1118205553
0.1008842316
0.0910506108
0.0822489653
0.0744108345
0.0674700241
0.0613626063
0.0560269201
0.0514035707
0.0474354302
0.0440676368
0.0412475795
0.0389236713
0.0370444946
0.0355606961
0.0344251891
0.0335931577
0.0330222206
0.0326724835
0.0325063336
0.0324884245
0.0325856766
0.0327672766
0.0330094263
0.0333524811
0.0337826708
0.0342665495
0.0347764114
0.0352902896
0.0357919571
0.0362709263
0.0367224490
0.0371475165
0.0375528598
0.0379509490
0.0383599941
0.0388039478
0.0393128359
0.0399230289
0.0406767008
0.0416217651
0.0428118748
0.0443064223
0.0461705397
0.0484750983
0.0512361052
0.0545574766
0.0587436956
0.0640517120
0.0706859374
0.0787982456
0.0884879718
0.0998019137
0.1127343305
0.1272269435
0.1431689357
0.1603969524
0.1786951003
0.1977949485
0.2174730603
0.2372460291
0.2562557919
0.2737479434
0.2890804738
0.3017236486
0.3112599929
0.3173842907
0.3199035156
0.3187367773
0.3139154330
0.3055830994
0.2939956529
0.2794964677
0.2624613810
0.2436442704
0.2237843610
0.2035327344
0.1834523280
0.1640179357
0.1456162074
0.1285456493
0.1130166239
0.0991513497
0.0869839017
0.0764602107
0.0674380640
0.0597001025
0.0537075532
0.0476865178
0.0392242534
0.0266699985
0.0091349732
-0.0135076209
-0.0406226008
-0.0708128018
-0.1025358038
-0.1263428676
-0.1278055680
-0.0962844298
-0.0250446359
0.0887439734
0.2440069001
0.4357649884
0.6547217907
0.8707024758
1.0394503812
1.1301475841
1.1268229230
1.0283519978
0.8489655900
0.6231107599
0.3877388133
0.1710023371
-0.0078619604
-0.1385235664
-0.2148505902
-0.2437597763
-0.2384661638
-0.2105054690
-0.1697339960
-0.1243286222
-0.0807867979
-0.0439265463
-0.0168864636
0.0003742810
0.0115418870
0.0187767286
0.0238103238
0.0279765350
0.0322115688
0.0370539764
0.0426446529
0.0487670577
0.0555383209
0.0631204902
0.0715784029
0.0809640964
0.0913160966
0.1026583877
0.1150018951
0.1283447466
0.1426722728
0.1579570067
0.1741919681
0.1914368976
0.2095180790
0.2282340215
0.2473846783
0.2667714471
0.2861971698
0.3054661327
0.3243840662
0.3427581451
0.3603969886
0.3771106600
0.3927106670
0.4070099616
0.4198229401
0.4309654429
0.4402547551
0.4475096057
0.4525501695
0.4551955775
0.4550986081
0.4522663177
0.4469144941
0.4392550320
0.4294960068
0.4178418406
0.4044931115
0.3896465040
0.3734948097
0.3562269270
0.3380278609
0.3190787236
0.2995567337
0.2796352171
0.2594836060
0.2392674398
0.2191483646
0.1992841334
0.1798286058
0.1609317485
0.1427396348
0.1253944450
0.1090344662
0.0937940919
0.0797985465
0.0670467278
0.0554604343
0.0449705282
0.0355097701
0.0270128184
0.0194162297
0.0126584586
0.0066798579
0.0014226782
-0.0031689317
-0.0071489250
-0.0105693567
-0.0134803839
-0.0159302655
-0.0179653626
-0.0196301380
-0.0209671565
-0.0220170849
-0.0228186920
-0.0234088482
-0.0238225264
-0.0240928010
-0.0242508485
-0.0243259475
-0.0243438798
-0.0242681202
-0.0241010976
-0.0238738611
-0.0236120612
-0.0233359939
-0.0230607592
-0.0227961147
-0.0225464193
-0.0223106329
-0.0220823161
-0.0218496308
-0.0215953395
-0.0212968060
-0.0209259950
-0.0204494719
-0.0198284035
-0.0190185572
-0.0179703015
-0.0166286060
-0.0149330411
-0.0128261433
-0.0103047814
-0.0071418041
-0.0030835343
0.0020822682
0.0085280706
0.0163846839
0.0257407686
0.0366428340
0.0490952391
0.0630601918
0.0784577492
0.0951658178
0.1130201532
0.1318878508
0.1514958658
0.1710455301
0.1897911447
0.2070760143
0.2223324473
0.2350817554
0.2449342543
0.2515892629
0.2548351040
0.2545491036
0.2506975917
0.2433359016
0.2326083704
0.2186623405
0.2020676040
0.1836095196
0.1639937928
0.1438471080
0.1237171289
0.1040725174
0.0853030334
0.0677194622
0.0515535683
0.0369580956
0.0240067671
0.0126942851
0.0029363311
-0.0054304341
-0.0124330380
-0.0185752322
-0.0257923057
-0.0357018943
-0.0495090851
-0.0680064171
-0.0915738808
-0.1201789182
-0.1531899600
-0.1827102632
-0.1978582022
-0.1893396853
-0.1494584968
-0.0721175841
0.0471805262
0.2116088525
0.4230327233
0.6480684403
0.8491455282
0.9968351175
1.0698499450
1.0550443535
0.9474142918
0.7583585990
0.5280614217
0.2930985565
0.0808848265
-0.0903171336
-0.2113968782
-0.2819224375
-0.3035109123
-0.2892442490
-0.2534481770
-0.2077711720
-0.1611844561
-0.1199819974
-0.0877804320
-0.0655188100
-0.0514588402
-0.0419603377
-0.0353160083
-0.0304877135
-0.0265835163
-0.0228798882
-0.0188216972
-0.0140222078
-0.0082630811
-0.0014943746
0.0061654579
0.0145278971
0.0237812685
0.0340103401
0.0452541025
0.0575311643
0.0708397525
0.0851577125
0.1004425076
0.1166312196
0.1336405483
0.1513668119
0.1696859468
0.1884530209
0.2075343032
0.2268215575
0.2460302428
0.2648774977
0.2830980732
0.3004443334
0.3166862552
0.3316114284
0.3450250552
0.3567499512
0.3666265444
0.3745128757
0.3802845990
0.3838349807
0.3850749002
0.3839328499
0.3802483868
0.3738181446
0.3649027254
0.3537790791
0.3407133148
0.3259607011
0.3097656658
0.2923617963
0.2739727018
0.2548154413
0.2350975637
0.2150157776
0.1947559512
0.1744931045
0.1543913191
0.1346037669
0.1152727778
0.0965298410
0.0784956051
0.0612798779
0.0449816268
0.0296889785
0.0154792190
0.0024187936
-0.0094364024
-0.0200758640
-0.0295699126
-0.0379949946
-0.0454244625
-0.0519285744
-0.0575744946
-0.0624262931
-0.0665449461
-0.0699896538
-0.0728236312
-0.0751093845
-0.0769063279
-0.0782707810
-0.0792559699
-0.0799120262
-0.0802859877
-0.0804217978
-0.0803603061
-0.0801392680
-0.0797933449
-0.0793541039
-0.0788500184
-0.0783064674
-0.0777457359
-0.0771870149
-0.0766464013
-0.0761122234
-0.0755716184
-0.0750656407
-0.0746278239
-0.0742830682
-0.0740476404
-0.0739291735
-0.0739249687
-0.0740137532
-0.0741620152
-0.0743276047
-0.0744597378
-0.0744989920
-0.0743771966
-0.0740174399
-0.0733341725
-0.0722332116
-0.0706117407
-0.0683583101
-0.0653528363
-0.0614666025
-0.0565622584
-0.0504938202
-0.0431066706
-0.0342375587
-0.0237146002
-0.0113029195
0.0032933555
0.0196829880
0.0373890068
0.0559446138
0.0748931829
0.0937867770
0.1121781991
0.1296267303
0.1457018156
0.1599830727
0.1720602913
0.1815334340
0.1880126355
0.1911182033
0.1904806171
0.1857376303
0.1769161763
0.1647482049
0.1499765009
0.1332837501
0.1152925392
0.0965653557
0.0776045881
0.0588525258
0.0406913592
0.0234431793
0.0073699785
-0.0073263504
-0.0205040132
-0.0320813152
-0.0420360449
-0.0502304540
-0.0558728982
-0.0609347269
-0.0675004795
-0.0771142329
-0.0907796034
-0.1089597472
-0.1315773581
-0.1580146668
-0.1871134417
-0.2186201256
-0.2477843011
-0.2553831479
-0.2268076389
-0.1535689277
-0.0332983496
0.1302525793
0.3272121616
0.5415885188
0.7512695911
0.9257471083
1.0266904102
1.0316882267
0.9374879006
0.7598952084
0.5335225688
0.2979228477
0.0820132140
-0.0939296806
-0.2189947899
-0.2916366732
-0.3170411174
-0.3046230152
-0.2692671493
-0.2232788767
-0.1761506661
-0.1345620973
-0.1023798621
-0.0803964169
-0.0661088962
-0.0571018779
-0.0513888069
-0.0473577778
-0.0437715346
-0.0397674711
-0.0348576302
-0.0289287047
-0.0222420367
-0.0150242666
-0.0069213867
0.0021432079
0.0122211658
0.0233464330
0.0355352628
0.0487862146
0.0630800709
0.0783797793
0.0946305816
0.1117600271
0.1296783531
0.1483947552
0.1677693743
0.1875243282
0.2073924694
0.2271173857
0.2464533996
0.2651655686
0.2830296853
0.2998322771
0.3153706066
0.3294526710
0.3418972028
0.3525336692
0.3612022727
0.3677542033
0.3720536545
0.3739767532
0.3734031520
0.3699889629
0.3638089494
0.3551558058
0.3443113461
0.3315465045
0.3171213352
0.3012850123
0.2842758302
0.2663212029
0.2476376648
0.2284308702
0.2088955932
0.1892157283
0.1695642897
0.1501034117
0.1309843488
0.1123474753
0.0943222855
0.0770273939
0.0605705350
0.0450485631
0.0305473923
0.0171414639
0.0048940019
-0.0061455428
-0.0159993366
-0.0247505737
-0.0324816380
-0.0392714775
-0.0451957316
-0.0503267515
-0.0547336005
-0.0584820537
-0.0616345978
-0.0642504316
-0.0663854658
-0.0680923228
-0.0694203368
-0.0704155542
-0.0711207330
-0.0715753430
-0.0718155659
-0.0718742955
-0.0717811372
-0.0715624082
-0.0712411379
-0.0708371499
-0.0703678725
-0.0698479905
-0.0692651473
-0.0685547989
-0.0677612449
-0.0669303741
-0.0660979375
-0.0652895483
-0.0645206814
-0.0637966742
-0.0631127260
-0.0624538982
-0.0617951142
-0.0611011598
-0.0603266824
-0.0594161920
-0.0583040603
-0.0569145212
-0.0551616708
-0.0529494671
-0.0501717304
-0.0467121429
-0.0424442490
-0.0372314551
-0.0309268211
-0.0233707910
-0.0143920467
-0.0038103036
0.0084872664
0.0224672743
0.0380216987
0.0549754430
0.0730863497
0.0920452049
0.1114757374
0.1309346194
0.1499114660
0.1678288355
0.1840422294
0.1978400921
0.2085439052
0.2158490192
0.2195308455
0.2194795749
0.2157078351
0.2083506913
0.1976656459
0.1840326387
0.1679540467
0.1500543201
0.1310755694
0.1116787346
0.0923526809
0.0736335888
0.0559564196
0.0396546306
0.0249601751
0.0120035027
0.0008135590
-0.0086822144
-0.0166578794
-0.0233411268
-0.0286732378
-0.0344828572
-0.0427264780
-0.0548413696
-0.0717455775
-0.0938379236
-0.1209980059
-0.1527205766
-0.1826234690
-0.1986361999
-0.1904398369
-0.1497425814
-0.0702793206
0.0521944420
0.2199834891
0.4351423909
0.6620719832
0.8583095470
0.9923104497
1.0434481495
1.0020141911
0.8692182041
0.6641646603
0.4289824031
0.1990444747
0.0001008592
-0.1517037661
-0.2498300305
-0.2973438702
-0.3019305893
-0.2747789826
-0.2308746697
-0.1819468305
-0.1364472859
-0.0995504976
-0.0731535683
-0.0558762414
-0.0441093975
-0.0359516568
-0.0300254379
-0.0251877678
-0.0205386646
-0.0154211371
-0.0094211850
-0.0023677988
0.0056670401
0.0144103986
0.0239845020
0.0345296207
0.0460927461
0.0587006545
0.0723599070
0.0870568488
0.1027576104
0.1194081065
0.1369340366
0.1552408849
0.1742139200
0.1937356688
0.2137492332
0.2339971488
0.2541938760
0.2740670402
0.2933623995
0.3118431538
0.3292855285
0.3454786232
0.3602244111
0.3733376934
0.3846458714
0.3939891194
0.4012204854
0.4062058910
0.4088241321
0.4089506794
0.4062145982
0.4007167256
0.3927432849
0.3825707039
0.3704656154
0.3566848567
0.3414754703
0.3250747030
0.3077100068
0.2895990381
0.2709496583
0.2519599335
0.2328179545
0.2136983568
0.1947625724
0.1761621081
0.1580386754
0.1405241907
0.1237407750
0.1078007543
0.0928066591
0.0788512250
0.0660173921
0.0543783053
0.0439854557
0.0347905050
0.0267033597
0.0196370856
0.0135080968
0.0082361556
0.0037443725
-0.0000407939
-0.0031895367
-0.0057687008
-0.0078417829
-0.0094689316
-0.0107069471
-0.0116091679
-0.0122229738
-0.0125897902
-0.0127475812
-0.0127309627
-0.0125712023
-0.0122961645
-0.0119299007
-0.0114928811
-0.0110022257
-0.0104717066
-0.0099117475
-0.0093294240
-0.0087283603
-0.0080813964
-0.0073896038
-0.0066792738
-0.0059674027
-0.0052616920
-0.0045605481
-0.0038530826
-0.0031191121
-0.0023291582
-0.0014444478
-0.0004169126
0.0008107271
0.0023028699
0.0041308797
0.0063753012
0.0091259741
0.0124820330
0.0165519072
0.0214533212
0.0273132944
0.0342681412
0.0424634706
0.0520541870
0.0632044893
0.0760878717
0.0908403647
0.1073064107
0.1251869942
0.1441425470
0.1637931516
0.1837185412
0.2034580996
0.2225108616
0.2403355125
0.2563503884
0.2699334760
0.2804224538
0.2871705419
0.2899800182
0.2889397013
0.2842115392
0.2760289268
0.2646966911
0.2505909383
0.2341591080
0.2159200838
0.1964641956
0.1764532198
0.1566203788
0.1375744526
0.1193883202
0.1026110066
0.0876574992
0.0747419466
0.0638776594
0.0548771095
0.0473519304
0.0407129173
0.0341700268
0.0267323772
0.0172082484
0.0042148293
-0.0141706875
-0.0390346561
-0.0688956885
-0.0996306094
-0.1244744568
-0.1340204818
-0.1189208733
-0.0686781472
0.0280303621
0.1736544533
0.3615963668
0.5762107842
0.7928089005
0.9772832668
1.0903685277
1.1076800288
1.0241213430
0.8538842711
0.6304474845
0.3952686325
0.1759565959
-0.0070152493
-0.1414557635
-0.2234560433
-0.2573894422
-0.2518272612
-0.2187690322
-0.1721655178
-0.1227537799
-0.0780543371
-0.0423711830
-0.0167921171
0.0006729199
0.0126672656
0.0208925388
0.0267800735
0.0315141757
0.0360321235
0.0410241668
0.0469335275
0.0539563997
0.0620419491
0.0708923137
0.0803259366
0.0906707422
0.1019844302
0.1143004855
0.1276330253
0.1419767997
0.1573072044
0.1735809056
0.1907361053
0.2086917068
0.2273472459
0.2465869339
0.2663763299
0.2865140382
0.3067268532
0.3267538308
0.3463462880
0.3652678034
0.3832942167
0.4002136290
0.4158264026
0.4299451614
0.4423947901
0.4530124354
0.4616475046
0.4681616669
0.4724288524
0.4743352528
0.4737016844
0.4702116882
0.4640859752
0.4555982179
0.4450117464
0.4325792381
0.4185435483
0.4031377867
0.3865853167
0.3690997725
0.3508855672
0.3321379958
0.3130426440
0.2937753517
0.2745022127
0.2553795752
0.2365540413
0.2181624673
0.2003319635
0.1831798944
0.1668138786
0.1513317886
0.1368217514
0.1233621478
0.1110216126
0.0998565700
0.0898520882
0.0809260982
0.0729965294
0.0659855174
0.0598200305
0.0544304042
0.0497501918
0.0457161645
0.0422683115
0.0393498399
0.0369071746
0.0348899586
0.0332510527
0.0319465358
0.0309357044
0.0301810732
0.0296483748
0.0293065596
0.0291277961
0.0290874704
0.0291641869
0.0293397676
0.0295992527
0.0299309002
0.0303261860
0.0307798040
0.0312963488
0.0319289959
0.0326548749
0.0334376045
0.0342505260
0.0350769404
0.0359101085
0.0367532454
0.0376191855
0.0385301796
0.0395183900
0.0406259387
0.0419049072
0.0434173369
0.0452352286
0.0474405431
0.0501252006
0.0533910813
0.0573500247
0.0621238303
0.0678442572
0.0746530240
0.0827018092
0.0921522509
0.1031759469
0.1159264500
0.1303731463
0.1463747134
0.1637330370
0.1821913605
0.2014341033
0.2210868616
0.2407164080
0.2598306915
0.2778788377
0.2942511485
0.3082791023
0.3192593572
0.3267740469
0.3306583829
0.3308427572
0.3273547176
0.3203189680
0.3099573679
0.2965889331
0.2806298349
0.2625934007
0.2430901139
0.2228276134
0.2025858210
0.1826871640
0.1635786592
0.1457490729
0.1295433686
0.1151619519
0.1026605654
0.0919502888
0.0827975400
0.0748242141
0.0675078431
0.0601813353
0.0520329363
0.0421420050
0.0280180843
0.0075464150
-0.0192478474
-0.0501900012
-0.0809557981
-0.1053959310
-0.1136037330
-0.0942869001
-0.0389038728
0.0582602228
0.2000935756
0.3888364825
0.6100117389
0.8256535957
1.0029024159
1.1152002910
1.1422935714
1.0702411163
0.9050585369
0.6866993718
0.4519146955
0.2293960453
0.0397754208
-0.1043747163
-0.1979411601
-0.2399227655
-0.2424164477
-0.2183857713
-0.1788408666
-0.1328384297
-0.0874817226
-0.0479205734
-0.0173513757
0.0032576041
0.0167575587
0.0256040473
0.0316040683
0.0361996233
0.0404677210
0.0451214327
0.0505113336
0.0566233619
0.0631999838
0.0704636165
0.0785310252
0.0874615607
0.0973013257
0.1080832755
0.1198272398
0.1325399233
0.1462149052
0.1608326395
0.1763604551
0.1927952499
0.2101508431
0.2282456447
0.2468867666
0.2658820497
0.2850400644
0.3041701105
0.3230822174
0.3415871434
0.3594963767
0.3766221338
0.3927770440
0.4077736601
0.4214251380
0.4335453628
0.4439489493
0.4524512413
0.4588683123
0.4630169650
0.4646135229
0.4635911308
0.4601109139
0.4543353661
0.4464282953
0.4365548237
0.4248813878
0.4115757381
0.3968069393
0.3807453705
0.3635627246
0.3454320091
0.3265275455
0.3070249694
0.2871012308
0.2669345938
0.2467046366
0.2265923300
0.2067801738
0.1874520184
0.1687930286
0.1509896831
0.1342297751
0.1186781620
0.1043110262
0.0910805269
0.0789470899
0.0678700644
0.0578077234
0.0487172638
0.0405548061
0.0332753946
0.0268329974
0.0211805063
0.0162697368
0.0120514282
0.0084752435
0.0054897696
0.0030425170
0.0010799198
-0.0004526637
-0.0016109521
-0.0024520049
-0.0030347449
-0.0034193164
-0.0036669401
-0.0037953934
-0.0037920034
-0.0036795490
-0.0034786044
-0.0032074915
-0.0028822806
-0.0025167899
-0.0021225854
-0.0017089813
-0.0012830399
-0.0008495714
-0.0004111338
0.0000319664
0.0004816751
0.0009421900
0.0014199608
0.0019236892
0.0024643290
0.0030550858
0.0037114173
0.0044429379
0.0052509569
0.0062244335
0.0074663160
0.0090824654
0.0111816554
0.0138755726
0.0172788460
0.0215091881
0.0266872831
0.0329367285
0.0403840340
0.0491586223
0.0593928287
0.0712219011
0.0848434607
0.1003222899
0.1172849331
0.1353309881
0.1540532868
0.1730378955
0.1918641148
0.2101044798
0.2273247596
0.2430839577
0.2569343120
0.2684211667
0.2770826563
0.2824500524
0.2840478615
0.2814401268
0.2748389118
0.2648062340
0.2518863052
0.2366037679
0.2194636953
0.2009515919
0.1815333926
0.1616554634
0.1417446013
0.1222080339
0.1034334197
0.0857888483
0.0696228400
0.0552537266
0.0425667871
0.0315224669
0.0220672421
0.0139098888
0.0065214832
-0.0008645986
-0.0092526126
-0.0198842574
-0.0342388712
-0.0540334924
-0.0809175670
-0.1126102144
-0.1434540062
-0.1667854257
-0.1749774856
-0.1594396284
-0.1106177253
-0.0202152918
0.1150374487
0.2923470088
0.5001845739
0.7182690330
0.9175669783
1.0602537239
1.1086289641
1.0614442725
0.9320725327
0.7398092048
0.5098723252
0.2734025070
0.0662075599
-0.0950455799
-0.2079238688
-0.2726864920
-0.2935946634
-0.2789116254
-0.2409019056
-0.1932884012
-0.1449398253
-0.1019075442
-0.0678483485
-0.0440244527
-0.0293034953
-0.0201721532
-0.0134695861
-0.0084079217
-0.0041117876
0.0001002006
0.0047154397
0.0100273382
0.0161353170
0.0229505089
0.0304893578
0.0388730745
0.0481603579
0.0583941281
0.0696014980
0.0817936791
0.0949660698
0.1090982896
0.1241541784
0.1400817971
0.1568134420
0.1742752684
0.1924733990
0.2112256171
0.2302957654
0.2494543667
0.2684786244
0.2871524220
0.3052663238
0.3226175741
0.3390100978
0.3542545001
0.3681680665
0.3805747631
0.3913052363
0.4001968126
0.4070934994
0.4118459840
0.4143116344
0.4142895690
0.4115155236
0.4061714668
0.3984781382
0.3886517637
0.3769040553
0.3634422114
0.3484689166
0.3321823415
0.3147761433
0.2964394653
0.2773569368
0.2577086737
0.2376702778
0.2174128375
0.1971029271
0.1769026073
0.1569694250
0.1374564133
0.1185120917
0.1002804657
0.0829010271
0.0665087541
0.0512341110
0.0372030081
0.0244805185
0.0130008387
0.0026865603
-0.0065374890
-0.0147442441
-0.0220044032
-0.0283864331
-0.0339566616
-0.0387792635
-0.0429161797
-0.0464271136
-0.0493695321
-0.0517986647
-0.0537675041
-0.0553268061
-0.0565250893
-0.0574086353
-0.0580214890
-0.0584054579
-0.0586001128
-0.0586427874
-0.0585685784
-0.0584103454
-0.0581987113
-0.0579620616
-0.0577257121
-0.0575080459
-0.0573118632
-0.0570432398
-0.0567208683
-0.0563894742
-0.0560845953
-0.0558325815
-0.0556505952
-0.0555466107
-0.0555194147
-0.0555586060
-0.0556445957
-0.0557486070
-0.0558326755
-0.0558496489
-0.0557431871
-0.0554477623
-0.0548886588
-0.0539819732
-0.0526346143
-0.0507443031
-0.0481995727
-0.0448797687
-0.0406550487
-0.0353865674
-0.0289274224
-0.0211219515
-0.0118053728
-0.0008646072
0.0117101645
0.0258645566
0.0414820750
0.0583841243
0.0763299609
0.0950166909
0.1140792695
0.1330905019
0.1515610422
0.1689393944
0.1846119117
0.1979027970
0.2081711946
0.2151590812
0.2186574943
0.2185562269
0.2148550870
0.2076638975
0.1972024963
0.1838007362
0.1678980743
0.1500412505
0.1308859047
0.1111138331
0.0911785673
0.0715996965
0.0528228811
0.0352042251
0.0190102756
0.0044180237
-0.0084850966
-0.0197012073
-0.0293219872
-0.0375286717
-0.0442225038
-0.0499048659
-0.0566057625
-0.0659604945
-0.0791498842
-0.0969002750
-0.1194835316
-0.1467170400
-0.1782031007
-0.2104181772
-0.2311131709
-0.2292713171
-0.1964180621
-0.1266230374
-0.0165016054
0.1347851338
0.3255638597
0.5489886460
0.7671096091
0.9405341463
1.0412341934
1.0525462240
0.9691712495
0.7989609988
0.5758147246
0.3389813816
0.1185392326
-0.0647271842
-0.1993270548
-0.2828591721
-0.3153215051
-0.3085332087
-0.2772292789
-0.2335222392
-0.1869021408
-0.1442365627
-0.1097707413
-0.0851284662
-0.0693115405
-0.0589354177
-0.0515930368
-0.0462558975
-0.0420218834
-0.0381464661
-0.0340427057
-0.0292812505
-0.0235903373
-0.0168557910
-0.0091210249
-0.0005844377
0.0087582677
0.0190776256
0.0304196868
0.0428094611
0.0562509171
0.0707269823
0.0861995431
0.1026094449
0.1198764919
0.1378994473
0.1565560331
0.1757026296
0.1951719858
0.2148163263
0.2345080115
0.2539456602
0.2728370884
0.2909114094
0.3079189555
0.3236311957
0.3378408770
0.3503620447
0.3610300416
0.3697015085
0.3762543844
0.3805879059
0.3826226074
0.3823003216
0.3795841788
0.3743784153
0.3665939722
0.3564882839
0.3443263225
0.3303632438
0.3148443881
0.2980052796
0.2800721163
0.2612658930
0.2418003229
0.2218793293
0.2016970196
0.1814376853
0.1612758023
0.1413760302
0.1218932132
0.1029723792
0.0847487405
0.0673476934
0.0508848185
0.0354658804
0.0211868277
0.0081403211
-0.0036768971
-0.0143396182
-0.0239204311
-0.0324893017
-0.0401135732
-0.0468579657
-0.0527845765
-0.0579528799
-0.0624197273
-0.0662397100
-0.0694685444
-0.0721615376
-0.0743714022
-0.0761482281
-0.0775394821
-0.0785900080
-0.0793419070
-0.0798343239
-0.0801037232
-0.0801839463
-0.0801062117
-0.0798991153
-0.0795886296
-0.0791981047
-0.0787482672
-0.0782572214
-0.0777404483
-0.0771862695
-0.0765624173
-0.0759035136
-0.0752385745
-0.0745879241
-0.0739631949
-0.0733673279
-0.0727944414
-0.0722284783
-0.0716437480
-0.0710058534
-0.0702717057
-0.0693895243
-0.0682988370
-0.0669304799
-0.0652065974
-0.0630406421
-0.0603373751
-0.0569928657
-0.0528944916
-0.0479209386
-0.0419422011
-0.0348195815
-0.0264056908
-0.0165444481
-0.0050710809
0.0082403285
0.0236416729
0.0407345644
0.0590452971
0.0781074884
0.0974620786
0.1166573692
0.1352494605
0.1528021000
0.1688863646
0.1830806541
0.1949706917
0.2041495239
0.2102174243
0.2127816220
0.2114565809
0.2058832134
0.1963195415
0.1835234070
0.1682103475
0.1510405871
0.1326190368
0.1134952943
0.0941636439
0.0750630565
0.0565771900
0.0390343885
0.0227076833
0.0078147922
-0.0054818805
-0.0170752436
-0.0269136580
-0.0348823976
-0.0415072177
-0.0478265703
-0.0549008543
-0.0638119150
-0.0756630444
-0.0915789808
-0.1127059090
-0.1402596211
-0.1728944486
-0.2019484431
-0.2182360695
-0.2131859703
-0.1788409652
-0.1078580515
0.0064915961
0.1699299532
0.3719637967
0.5885009726
0.7929171149
0.9562032680
1.0469658864
1.0333342813
0.9178259598
0.7329669601
0.5103120393
0.2794212866
0.0678581504
-0.0997313836
-0.2148905161
-0.2801620807
-0.3009448830
-0.2857851811
-0.2463768483
-0.1973379838
-0.1499963683
-0.1091209148
-0.0773307600
-0.0553377436
-0.0419464087
-0.0340540010
-0.0280338110
-0.0231171717
-0.0186215955
-0.0140000100
-0.0088550506
-0.0029390610
0.0038459069
0.0114507798
0.0198854880
0.0292601183
0.0396342885
0.0510476635
0.0635200139
0.0770512153
0.0916212490
0.1071902018
0.1236982656
0.1410657381
0.1591930220
0.1779606259
0.1972603550
0.2170208473
0.2369669925
0.2568152904
0.2762966853
0.2951565658
0.3131547651
0.3300655608
0.3456776748
0.3597942736
0.3722329679
0.3828258131
0.3914193089
0.3978744545
0.4020677518
0.4038911022
0.4032389770
0.3997531964
0.3935222113
0.3848404377
0.3739910713
0.3612460221
0.3468659554
0.3311003258
0.3141873768
0.2963541412
0.2778164410
0.2587788873
0.2394348804
0.2199666099
0.2005450545
0.1813299821
0.1624699496
0.1441023034
0.1263531790
0.1093375008
0.0931589828
0.0779101278
0.0636722531
0.0505160050
0.0385013418
0.0276757932
0.0180269847
0.0094748705
0.0019380481
-0.0046615566
-0.0103986892
-0.0153447671
-0.0195678792
-0.0231327861
-0.0261009199
-0.0285303844
-0.0304759550
-0.0319890788
-0.0331178742
-0.0339071316
-0.0343983129
-0.0346295515
-0.0346356525
-0.0344480927
-0.0340950203
-0.0336012552
-0.0329882891
-0.0322743712
-0.0314765362
-0.0306106827
-0.0296659813
-0.0285762178
-0.0273881752
-0.0261512568
-0.0249045222
-0.0236767085
-0.0224862212
-0.0213411205
-0.0202391208
-0.0191675913
-0.0181035554
-0.0170136910
-0.0158543306
-0.0145714608
-0.0131007231
-0.0113674130
-0.0092864808
-0.0067625310
-0.0036898226
0.0000477308
0.0045765613
0.0100334466
0.0165656292
0.0243340482
0.0335137138
0.0442670797
0.0566618394
0.0706904088
0.0862710786
0.1032478116
0.1213902429
0.1403936799
0.1598791020
0.1793931608
0.1984081803
0.2163221566
0.2324587578
0.2460780665
0.2566526509
0.2638598688
0.2674709127
0.2673752748
0.2635807476
0.2562134232
0.2455176937
0.2318562512
0.2157100875
0.1976783854
0.1784751036
0.1589038499
0.1394327966
0.1205437581
0.1027068800
0.0862789365
0.0715033313
0.0585101047
0.0473159325
0.0378241192
0.0298245984
0.0229939323
0.0168953118
0.0112665892
0.0042179579
-0.0068544624
-0.0234113215
-0.0457613351
-0.0730612841
-0.1033453647
-0.1323398449
-0.1490939110
-0.1428079875
-0.1046056326
-0.0275334770
0.0934409787
0.2627816696
0.4756060603
0.6964592458
0.8915144936
1.0324177258
1.0962875190
1.0657151042
0.9331751006
0.7297905044
0.4972887899
0.2687414122
0.0685184166
-0.0877115612
-0.1929355751
-0.2444363571
-0.2523049120
-0.2309092447
-0.1923845595
-0.1466332605
-0.1013249519
-0.0618964373
-0.0315517205
-0.0111370926
0.0021147410
0.0107929911
0.0167229167
0.0213578892
0.0257794744
0.0306974332
0.0364497214
0.0430024914
0.0500833620
0.0579194747
0.0666260742
0.0762619634
0.0868708420
0.0984813072
0.1111068535
0.1247458724
0.1393816528
0.1549823810
0.1715011401
0.1889276163
0.2072463709
0.2262446283
0.2457039377
0.2654084524
0.2851449301
0.3047027371
0.3238740886
0.3424541635
0.3602407737
0.3770343357
0.3926378698
0.4068570007
0.4194999576
0.4303775735
0.4393032859
0.4460931365
0.4505657712
0.4524516360
0.4515794619
0.4481354118
0.4423136839
0.4343074031
0.4243086210
0.4125083167
0.3990963958
0.3842616911
0.3681919623
0.3510738959
0.3330931056
0.3144341320
0.2952804399
0.2758142561
0.2562164736
0.2366668891
0.2173442263
0.1984261359
0.1800891957
0.1625089089
0.1458596473
0.1303146247
0.1160265114
0.1029584160
0.0910494322
0.0802515582
0.0705159463
0.0617929031
0.0540318891
0.0471815190
0.0411895616
0.0360029400
0.0315677311
0.0278291662
0.0247316305
0.0222186636
0.0202329590
0.0187163677
0.0176101626
0.0168552247
0.0163916335
0.0161586224
0.0160945791
0.0161716466
0.0163925872
0.0167348544
0.0171780781
0.0177041245
0.0182970966
0.0189433334
0.0196314109
0.0203521411
0.0210985728
0.0218659913
0.0226519181
0.0234561114
0.0242805658
0.0251295126
0.0260094191
0.0269289897
0.0278991647
0.0289331212
0.0300359268
0.0312184552
0.0325491256
0.0341065001
0.0359767695
0.0382537542
0.0410389038
0.0444412974
0.0485776869
0.0535725388
0.0595579581
0.0666736794
0.0750670663
0.0848931118
0.0963144382
0.1095640858
0.1247854545
0.1416426648
0.1597589339
0.1787440179
0.1981942116
0.2176923487
0.2368078015
0.2550964813
0.2721008379
0.2873498656
0.3003597729
0.3106346349
0.3176652202
0.3209288361
0.3198908440
0.3145384885
0.3054918243
0.2933705555
0.2787641200
0.2622316895
0.2443021694
0.2254741987
0.2062161503
0.1869661308
0.1681319805
0.1500912734
0.1331913173
0.1177491536
0.1040515577
0.0922469352
0.0820715941
0.0735157905
0.0662982062
0.0597970876
0.0530502411
0.0447542716
0.0332637286
0.0167551017
-0.0059272428
-0.0341694485
-0.0649104804
-0.0926248255
-0.1093225438
-0.1047010739
-0.0705844827
0.0047561842
0.1281629504
0.2975621742
0.5019645483
0.7214651005
0.9274446374
1.0819039574
1.1517831602
1.1222068030
0.9969393050
0.7983849486
0.5659444063
0.3339804939
0.1267309238
-0.0389378283
-0.1542091263
-0.2183151496
-0.2380521218
-0.2218717635
-0.1834901932
-0.1354895099
-0.0873597568
-0.0454989219
-0.0132129373
0.0092843204
0.0244823849
0.0347070283
0.0415620800
0.0464040051
0.0503430999
0.0542434908
0.0587231353
0.0641538212
0.0706611671
0.0781246223
0.0862009686
0.0950008041
0.1047273244
0.1154298580
0.1271397923
0.1398699097
0.1536134167
0.1683453333
0.1840227408
0.2005847808
0.2179526558
0.2360296291
0.2547682983
0.2740758719
0.2936930440
0.3133678618
0.3328581244
0.3519313824
0.3703649385
0.3879458468
0.4044709134
0.4197466960
0.4335895042
0.4458253993
0.4562901943
0.4648294540
0.4712984950
0.4755623856
0.4774959459
0.4769000757
0.4734838123
0.4674634441
0.4590941853
0.4486231657
0.4362894299
0.4223239380
0.4069495653
0.3903811023
0.3728252548
0.3544806438
0.3355378056
0.3161791917
0.2965791689
0.2769040192
0.2573119399
0.2379530433
0.2189693574
0.2004948251
0.1826553045
0.1655685694
0.1493443082
0.1340841251
0.1198815393
0.1068219852
0.0949782596
0.0843342189
0.0748092853
0.0663247691
0.0588048428
0.0521765418
0.0463697635
0.0413172681
0.0369546550
0.0332202695
0.0300552829
0.0274037287
0.0252125029
0.0234313638
0.0220129325
0.0209126922
0.0200889887
0.0195030303
0.0191188875
0.0189034936
0.0188266441
0.0188609970
0.0189820728
0.0191682543
0.0194007869
0.0196637786
0.0199445533
0.0202727204
0.0206625970
0.0210800957
0.0214989001
0.0219004991
0.0222741874
0.0226170651
0.0229340379
0.0232378170
0.0235489192
0.0238956670
0.0243141881
0.0248484160
0.0255500898
0.0264787539
0.0277017586
0.0292942594
0.0313392175
0.0339273998
0.0371516461
0.0410207310
0.0457763418
0.0517006801
0.0590137561
0.0678731734
0.0783736218
0.0905474485
0.1043648097
0.1197336698
0.1364998025
0.1544467899
0.1732960296
0.1927067774
0.2122995653
0.2317293136
0.2502282125
0.2670452611
0.2815484837
0.2932249298
0.3016806745
0.3066408175
0.3079494844
0.3055698255
0.2995840167
0.2901932589
0.2777177784
0.2625795993
0.2451750925
0.2262005235
0.2063554401
0.1862539192
0.1664253012
0.1473144047
0.1292815272
0.1126024445
0.0974684110
0.0839861599
0.0721779027
0.0619813296
0.0532496094
0.0459250804
0.0394427745
0.0323528858
0.0233105471
0.0111012465
-0.0053591723
-0.0270245102
-0.0547271737
-0.0872129463
-0.1172176049
-0.1364134571
-0.1364316909
-0.1088623749
-0.0452544581
0.0627760693
0.2174649564
0.4095296406
0.6224940320
0.8330090122
1.0108524338
1.1189286900
1.1231042920
1.0312199055
0.8657479581
0.6517218965
0.4167361880
0.1909463199
0.0046261752
-0.1325892146
-0.2210453985
-0.2637434494
-0.2668012291
-0.2394533887
-0.1940513679
-0.1449676915
-0.1000273247
-0.0625615008
-0.0342768323
-0.0152261378
-0.0038090556
0.0032196992
0.0086698366
0.0131605175
0.0173409813
0.0217139216
0.0266354860
0.0323152765
0.0388163494
0.0460714546
0.0541350965
0.0630972825
0.0730105841
0.0839106287
0.0958160993
0.1087287350
0.1226333305
0.1374977367
0.1532728599
0.1698926626
0.1872741629
0.2053255494
0.2240128066
0.2431394259
0.2624663805
0.2817615300
0.3008002433
0.3193648328
0.3372443255
0.3542344631
0.3701377015
0.3847632112
0.3979268963
0.4094516674
0.4191673774
0.4269105995
0.4325246217
0.4358594465
0.4366722048
0.4348391286
0.4305304366
0.4239203345
0.4151835390
0.4044952785
0.3920312929
0.3779678333
0.3624816626
0.3457500547
0.3279507954
0.3092621817
0.2898629794
0.2699322515
0.2496495058
0.2291947615
0.2087485491
0.1884919108
0.1686063999
0.1492740816
0.1306775321
0.1129998394
0.0964246028
0.0810513838
0.0668259688
0.0537104504
0.0416656820
0.0306512236
0.0206253421
0.0115450111
0.0033659110
-0.0039575708
-0.0104723405
-0.0162265971
-0.0212698331
-0.0256528340
-0.0294276786
-0.0326474965
-0.0353653942
-0.0376353267
-0.0395125420
-0.0410535814
-0.0423162791
-0.0433597628
-0.0442444656
-0.0450003314
-0.0456076452
-0.0460875120
-0.0464599705
-0.0467427156
-0.0469510984
-0.0470981263
-0.0471944628
-0.0472484275
-0.0472659963
-0.0472508014
-0.0472041309
-0.0471249293
-0.0470097973
-0.0468529917
-0.0466464255
-0.0463796679
-0.0460402674
-0.0456153322
-0.0450903213
-0.0444483512
-0.0436971775
-0.0428345323
-0.0417375960
-0.0402805474
-0.0383399277
-0.0357946412
-0.0325259546
-0.0284174975
-0.0233552623
-0.0172276040
-0.0099252404
-0.0013412519
0.0086289182
0.0200874639
0.0331342165
0.0478834922
0.0646057033
0.0828953310
0.1021585108
0.1218310296
0.1413783257
0.1602956958
0.1781094136
0.1943759262
0.2086813338
0.2206413879
0.2299014912
0.2361366981
0.2390517190
0.2383811221
0.2338894125
0.2254171022
0.2133822815
0.1985123434
0.1814853426
0.1629258591
0.1434049983
0.1234403913
0.1034961945
0.0839830897
0.0652582844
0.0476255113
0.0313350286
0.0165836201
0.0035145951
-0.0077611587
-0.0171357196
-0.0251570331
-0.0325768734
-0.0402247243
-0.0490077790
-0.0599109393
-0.0739968162
-0.0924057294
-0.1163557078
-0.1482000617
-0.1860869104
-0.2166935672
-0.2284069865
-0.2122076700
-0.1616696669
-0.0729605732
0.0551584673
0.2213327640
0.4216140788
0.6437865793
0.8485616695
0.9980822342
1.0664316383
1.0396336773
0.9161382659
0.7195537925
0.4889897359
0.2572581641
0.0499099936
-0.1147455902
-0.2275005032
-0.2910677663
-0.3117729776
-0.2979632407
-0.2600072983
-0.2102952728
-0.1622551996
-0.1219001936
-0.0903733556
-0.0677735528
-0.0531624051
-0.0445642856
-0.0389786269
-0.0341845358
-0.0297813244
-0.0253363888
-0.0205080953
-0.0150457807
-0.0087897525
-0.0016712885
0.0062880619
0.0150911840
0.0248245557
0.0355427322
0.0472794597
0.0600476750
0.0738395060
0.0886262711
0.1043584797
0.1209658319
0.1383572187
0.1564207219
0.1750236140
0.1940123584
0.2132126748
0.2325174595
0.2517233854
0.2705275634
0.2886485393
0.3058262932
0.3218222401
0.3364192295
0.3494215454
0.3606549067
0.3699664668
0.3772248407
0.3823203213
0.3851647655
0.3856914662
0.3838551506
0.3796263140
0.3728226172
0.3635669033
0.3521350320
0.3387931837
0.3237975704
0.3073943841
0.2898197958
0.2712999560
0.2520509948
0.2322790216
0.2121801252
0.1919403738
0.1717358152
0.1517324764
0.1320863640
0.1129434639
0.0944397415
0.0767011416
0.0598435883
0.0439729849
0.0291852080
0.0155672725
0.0031960956
-0.0079758414
-0.0180285189
-0.0270391223
-0.0350820424
-0.0422288749
-0.0485484206
-0.0541066854
-0.0589668802
-0.0631894211
-0.0668319293
-0.0699492309
-0.0725933573
-0.0748135449
-0.0766562352
-0.0781650747
-0.0793809151
-0.0803418131
-0.0810830306
-0.0816370345
-0.0820334966
-0.0822992942
-0.0824584806
-0.0825320014
-0.0825378152
-0.0824910827
-0.0824041700
-0.0822866480
-0.0821452311
-0.0819262879
-0.0816150861
-0.0812549222
-0.0808780343
-0.0805055546
-0.0801475099
-0.0798028214
-0.0794593045
-0.0790936693
-0.0786715202
-0.0781473559
-0.0774645696
-0.0765554489
-0.0753411758
-0.0737318266
-0.0716263723
-0.0689126780
-0.0654675033
-0.0611565478
-0.0558349505
-0.0493471044
-0.0411567845
-0.0309405587
-0.0188907241
-0.0052163863
0.0098565799
0.0260855298
0.0432110495
0.0609569556
0.0790302950
0.0971213454
0.1149036147
0.1320338415
0.1481519949
0.1628812744
0.1758281102
0.1865821628
0.1947163233
0.1997867133
0.2013326849
0.1988768209
0.1920162608
0.1813757975
0.1677471267
0.1517958371
0.1341430499
0.1153656136
0.0959961079
0.0765228441
0.0573898647
0.0389969437
0.0216995992
0.0058091410
-0.0084073718
-0.0202095389
-0.0294738789
-0.0372972035
-0.0446757875
-0.0524965184
-0.0615368963
-0.0724650338
-0.0858396564
-0.1021101019
-0.1216163210
-0.1445888768
-0.1711489449
-0.2012020211
-0.2284089010
-0.2386349761
-0.2203023388
-0.1652944164
-0.0689569004
0.0699022290
0.2490127039
0.4626932639
0.6857805893
0.8751129508
0.9977761237
1.0327097063
0.9707071201
0.8159136063
0.6003316468
0.3649423115
0.1416852338
-0.0468751172
-0.1875494361
-0.2728863910
-0.3044392456
-0.2981366666
-0.2679824564
-0.2255462461
-0.1799634958
-0.1379354942
-0.1037294040
-0.0791789533
-0.0636842992
-0.0542114449
-0.0469341265
-0.0411971473
-0.0362958597
-0.0316266270
-0.0267052151
-0.0211669340
-0.0147665400
-0.0073781675
0.0010046709
0.0102692455
0.0203924917
0.0315087313
0.0436615878
0.0568719977
0.0711382100
0.0864357866
0.1027176023
0.1199138443
0.1379320128
0.1566569207
0.1759506938
0.1956526598
0.2155774409
0.2355165622
0.2553385504
0.2747965773
0.2935739048
0.3113800230
0.3279506504
0.3430477339
0.3564594484
0.3680001974
0.3775106126
0.3848575539
0.3899341096
0.3926595964
0.3929795591
0.3908657708
0.3863162333
0.3792596697
0.3697056797
0.3579337780
0.3442173057
0.3288188872
0.3119904304
0.2939731264
0.2749977417
0.2552903148
0.2350717773
0.2145525606
0.1939323794
0.1734002315
0.1531343984
0.1333024448
0.1140612476
0.0955572436
0.0779263067
0.0612935961
0.0457735541
0.0314761820
0.0184562619
0.0066556149
-0.0039895989
-0.0135412394
-0.0220591857
-0.0296013370
-0.0362236119
-0.0419799488
-0.0469223057
-0.0511006604
-0.0545630102
-0.0573557026
-0.0595307644
-0.0611459350
-0.0622573106
-0.0629190070
-0.0631831600
-0.0630999246
-0.0627174758
-0.0620820081
-0.0612377359
-0.0602268930
-0.0590897330
-0.0578645292
-0.0565778139
-0.0551768192
-0.0536871465
-0.0521522290
-0.0506085127
-0.0490854559
-0.0476055295
-0.0461842168
-0.0448300136
-0.0435444283
-0.0423219815
-0.0411502065
-0.0400094386
-0.0388674716
-0.0376791313
-0.0363919600
-0.0349465124
-0.0332763558
-0.0313080700
-0.0289612471
-0.0261485050
-0.0227865328
-0.0188928010
-0.0141868142
-0.0083500340
-0.0011322142
0.0076485991
0.0181060678
0.0302855614
0.0441641572
0.0596506403
0.0765855037
0.0947409479
0.1138208817
0.1334609211
0.1532283902
0.1726705587
0.1911839612
0.2079894886
0.2224253502
0.2339569726
0.2421771611
0.2468060998
0.2476913517
0.2448078583
0.2382579402
0.2282710950
0.2151267350
0.1994175045
0.1818634055
0.1631237276
0.1437970486
0.1244212340
0.1054734373
0.0873700997
0.0704669503
0.0550590062
0.0413764505
0.0295014172
0.0193800214
0.0107920567
0.0033321334
-0.0035903052
-0.0107504355
-0.0191079194
-0.0298075586
-0.0441793382
-0.0637384259
-0.0905008582
-0.1296683635
-0.1683567941
-0.1908552498
-0.1852422801
-0.1433860077
-0.0609441340
0.0626360609
0.2241177181
0.4164744000
0.6288900900
0.8401841242
1.0034576425
1.0824316344
1.0605835223
0.9410965126
0.7468595957
0.5160007663
0.2835170109
0.0768634362
-0.0859242342
-0.1962689103
-0.2550530415
-0.2686159898
-0.2476831247
-0.2072436258
-0.1592576357
-0.1126071332
-0.0730959328
-0.0434496855
-0.0231634058
-0.0084836623
0.0022765946
0.0101227444
0.0159561304
0.0205740602
0.0246698050
0.0288326001
0.0335476448
0.0391961023
0.0460550996
0.0542977280
0.0639930423
0.0751060617
0.0874977344
0.1009233024
0.1150441020
0.1300230752
0.1460191908
0.1629560886
0.1807399631
0.1992595640
0.2183861932
0.2379736151
0.2578580264
0.2778581706
0.2977753458
0.3173934053
0.3364787568
0.3547803633
0.3720297426
0.3879452285
0.4023477023
0.4150342725
0.4257917188
0.4344431546
0.4408480267
0.4449021154
0.4465375345
0.4457227571
0.4424640854
0.4368064436
0.4288312827
0.4186563874
0.4064358757
0.3923601992
0.3766561430
0.3595868258
0.3414516409
0.3224491114
0.3027675107
0.2826848853
0.2624560015
0.2423123454
0.2224621229
0.2030902598
0.1843584017
0.1664049139
0.1493448817
0.1332701100
0.1182491236
0.1043271673
0.0915262054
0.0798449222
0.0692587214
0.0597613952
0.0513531888
0.0439537740
0.0374846152
0.0318705113
0.0270395950
0.0229233335
0.0194565277
0.0165772893
0.0142270231
0.0123504637
0.0108956799
0.0098140747
0.0090603853
0.0085926829
0.0083723731
0.0083641955
0.0085362240
0.0088598665
0.0093098653
0.0098642965
0.0105071006
0.0112601071
0.0121088951
0.0130272893
0.0139934482
0.0149890621
0.0160010125
0.0170215613
0.0180483504
0.0190844017
0.0201381175
0.0212232801
0.0223590518
0.0235699753
0.0248859732
0.0263423484
0.0279797839
0.0298443427
0.0319874682
0.0344659836
0.0372977213
0.0405528275
0.0445001049
0.0493784884
0.0553883846
0.0626916719
0.0714117004
0.0816332918
0.0934027486
0.1067288585
0.1215838063
0.1379014640
0.1555771749
0.1744772054
0.1945624690
0.2151645634
0.2354632147
0.2547271803
0.2723143787
0.2876716992
0.3003349693
0.3099289551
0.3161673608
0.3188528290
0.3178769407
0.3132202153
0.3049521103
0.2932051908
0.2784099736
0.2613724413
0.2428405440
0.2234844172
0.2038963814
0.1845909347
0.1660036572
0.1484900580
0.1323275559
0.1177157548
0.1047764438
0.0935535971
0.0840133742
0.0761964781
0.0695599280
0.0630728298
0.0556394182
0.0460990772
0.0332263399
0.0157308892
-0.0077424428
-0.0378803019
-0.0695609640
-0.0947072911
-0.1048451186
-0.0911138508
-0.0442664604
0.0450911336
0.1815461475
0.3611410081
0.5707858212
0.7879842421
0.9808356086
1.1079243001
1.1342126898
1.0639500125
0.9133031067
0.7049914539
0.4682871790
0.2390149788
0.0502419994
-0.0911246929
-0.1827728907
-0.2266624289
-0.2291492358
-0.2009853333
-0.1566010321
-0.1074914491
-0.0613771524
-0.0233053248
0.0044076284
0.0221760795
0.0331447489
0.0409388785
0.0466544444
0.0513751884
0.0559335167
0.0609077919
0.0666263326
0.0731680920
0.0804129296
0.0884653319
0.0974187117
0.1073257140
0.1182244960
0.1301387268
0.1430775879
0.1570357725
0.1719934862
0.1879164466
0.2047581859
0.2225672045
0.2412307954
0.2605347903
0.2802669890
0.3002171585
0.3201770336
0.3399403167
0.3593026778
0.3780617545
0.3960171549
0.4129716309
0.4287329159
0.4431111866
0.4559185871
0.4669692293
0.4760791926
0.4830665243
0.4877512389
0.4898894205
0.4892248270
0.4859304456
0.4802097797
0.4722639467
0.4622916774
0.4504893164
0.4370508221
0.4221677666
0.4060293355
0.3888223285
0.3707311586
0.3519378528
0.3326220518
0.3129610098
0.2931295950
0.2733002890
0.2536431736
0.2343259064
0.2155137521
0.1973695894
0.1800539103
0.1637248209
0.1485380408
0.1346209329
0.1219192412
0.1103685513
0.0999135833
0.0904993329
0.0820710718
0.0745743471
0.0679549820
0.0621590750
0.0571330005
0.0528234087
0.0491772254
0.0461416522
0.0436641664
0.0416925208
0.0401747443
0.0390591411
0.0382942910
0.0378281989
0.0376066038
0.0375750476
0.0376795176
0.0379075678
0.0382567714
0.0387033125
0.0392258188
0.0398054010
0.0404258629
0.0410735491
0.0417372484
0.0424081926
0.0430800574
0.0437489618
0.0444134685
0.0450745834
0.0457357563
0.0464028802
0.0470842919
0.0477907714
0.0485355425
0.0493342723
0.0501931277
0.0511149504
0.0522016682
0.0535694417
0.0553367360
0.0576236325
0.0605518283
0.0642446369
0.0688269874
0.0744254252
0.0811681117
0.0891848242
0.0986069560
0.1095675167
0.1222011316
0.1367508250
0.1530931383
0.1707744242
0.1893414034
0.2083413852
0.2273222678
0.2458325381
0.2634212717
0.2796381329
0.2940333750
0.3061578396
0.3155629574
0.3218000434
0.3244185357
0.3229545963
0.3171701914
0.3076461613
0.2950465695
0.2799959869
0.2630794921
0.2448426212
0.2257909702
0.2063904048
0.1870672964
0.1682085235
0.1501614721
0.1332340358
0.1176946156
0.1037721196
0.0916559639
0.0831392424
0.0794188059
0.0774335747
0.0747384874
0.0696039192
0.0610156823
0.0486750259
0.0329989599
0.0151211608
-0.0031089668
-0.0191265815
-0.0296514050
-0.0306877220
-0.0175243807
0.0152652078
0.0738230692
0.1650066660
0.2963888977
0.4762581004
0.7002185387
0.9189323058
1.0873702489
1.1757990562
1.1697332742
1.0699353083
0.8924154225
0.6680056237
0.4323763364
0.2137705339
0.0321739136
-0.1006780383
-0.1813000473
-0.2144572537
-0.2097318905
-0.1774738140
-0.1313426225
-0.0820474896
-0.0372198881
-0.0014135900
0.0238953334
0.0403085415
0.0514094699
0.0588672132
0.0640622504
0.0681381294
0.0719802184
0.0762157061
0.0812136012
0.0870847330
0.0936817510
0.1008916997
0.1089332247
0.1178666739
0.1277362886
0.1385712588
0.1503857228
0.1631787677
0.1769347259
0.1916242010
0.2072031130
0.2236297290
0.2409422443
0.2589679254
0.2774909889
0.2962991933
0.3151838391
0.3339397690
0.3523653675
0.3702625611
0.3874368184
0.4036971498
0.4188561079
0.4327297871
0.4451378240
0.4559033971
0.4648532268
0.4718175756
0.4766302479
0.4791284527
0.4789892818
0.4761615649
0.4708581458
0.4632879060
0.4536539029
0.4421550115
0.4289866309
0.4143406850
0.3984056226
0.3813664169
0.3634045658
0.3446980818
0.3254212932
0.3057448548
0.2858359384
0.2658582403
0.2459719818
0.2263339086
0.2070972911
0.1884119243
0.1704241280
0.1532767467
0.1371091494
0.1220572297
0.1082372323
0.0956116043
0.0841059005
0.0736536495
0.0641903474
0.0556561153
0.0479934844
0.0411463252
0.0350598477
0.0296806007
0.0249564720
0.0208366886
0.0172718166
0.0142137609
0.0116157658
0.0094324144
0.0076196290
0.0061346709
0.0049361405
0.0039839771
0.0032394593
0.0026652047
0.0022251698
0.0018846504
0.0016384537
0.0015229508
0.0015131079
0.0015853037
0.0017203514
0.0019028755
0.0021183992
0.0023556346
0.0026077267
0.0028722552
0.0031512343
0.0034511128
0.0037827740
0.0041615369
0.0046071913
0.0051440078
0.0058006942
0.0066103932
0.0076106818
0.0088435716
0.0103555088
0.0121973740
0.0143615581
0.0169762334
0.0202945298
0.0245347497
0.0298802420
0.0364794022
0.0444456725
0.0538575417
0.0647590401
0.0771622946
0.0910456393
0.1063524571
0.1229911777
0.1408353120
0.1598672873
0.1795914708
0.1992166209
0.2180326015
0.2354103825
0.2508020396
0.2637407542
0.2738408136
0.2807976108
0.2843876448
0.2844685201
0.2809789473
0.2739387427
0.2634484218
0.2496664852
0.2332092999
0.2148322064
0.1952190139
0.1749819996
0.1546615630
0.1347242497
0.1155641205
0.0975037013
0.0807939867
0.0656144394
0.0520729906
0.0402060401
0.0299784567
0.0215054296
0.0143324436
0.0073146350
-0.0006662830
-0.0106983762
-0.0238394887
-0.0411172436
-0.0635290427
-0.0920625520
-0.1253032467
-0.1549153776
-0.1719084024
-0.1678282618
-0.1347573803
-0.0653146656
0.0473444909
0.2102383722
0.4112667000
0.6257347799
0.8280294604
0.9916354285
1.0891352099
1.0922182252
0.9874100035
0.8062811707
0.5845180807
0.3527641628
0.1366199218
-0.0433570622
-0.1727203189
-0.2508393756
-0.2840399326
-0.2803318895
-0.2493923269
-0.2025655070
-0.1528107269
-0.1098180019
-0.0754917908
-0.0501554835
-0.0331660774
-0.0229141763
-0.0168241154
-0.0120188751
-0.0077701218
-0.0036319400
0.0007739194
0.0057320302
0.0114332900
0.0179749214
0.0253604701
0.0335609394
0.0426626230
0.0527260347
0.0637907008
0.0758761221
0.0889817741
0.1030871064
0.1181515435
0.1341144841
0.1508953016
0.1683933438
0.1864879331
0.2050383662
0.2238884448
0.2429501145
0.2619891001
0.2807210783
0.2988804031
0.3162194216
0.3325077570
0.3475323020
0.3610972195
0.3730239424
0.3831511734
0.3913348850
0.3974483200
0.4013819907
0.4030436797
0.4023584392
0.3991782782
0.3932320686
0.3847644575
0.3740588432
0.3613875793
0.3470119748
0.3311822942
0.3141377570
0.2961065383
0.2773057684
0.2579415331
0.2382088733
0.2182915640
0.1983602312
0.1785732940
0.1590781142
0.1400110091
0.1214972515
0.1036510693
0.0865756458
0.0703631198
0.0550947778
0.0408414598
0.0276630771
0.0156084963
0.0047138646
-0.0050458895
-0.0137518236
-0.0214843551
-0.0283207758
-0.0343352521
-0.0395988248
-0.0441794091
-0.0481417947
-0.0515476458
-0.0544555009
-0.0569207731
-0.0589956055
-0.0607275125
-0.0621599898
-0.0633333958
-0.0642849633
-0.0650487996
-0.0656558865
-0.0661340802
-0.0665081114
-0.0667995851
-0.0670269809
-0.0672056528
-0.0673478293
-0.0674588033
-0.0674682096
-0.0673870839
-0.0672606904
-0.0671248056
-0.0670057183
-0.0669202293
-0.0668756515
-0.0668698100
-0.0668910423
-0.0669181977
-0.0669206377
-0.0668582295
-0.0666812744
-0.0663305364
-0.0657372909
-0.0648233255
-0.0635009399
-0.0616729458
-0.0592326672
-0.0560639404
-0.0520412278
-0.0470299956
-0.0408863545
-0.0334569274
-0.0245788491
-0.0140809931
-0.0018654030
0.0120203939
0.0274609075
0.0442796111
0.0622389413
0.0810402984
0.1003240459
0.1196695107
0.1385949833
0.1565577174
0.1729538340
0.1871172010
0.1983467891
0.2062677639
0.2106643530
0.2114032341
0.2084653860
0.2019460896
0.1920549272
0.1791157828
0.1635668419
0.1459605917
0.1269638210
0.1072890037
0.0874143574
0.0678734387
0.0491279355
0.0315459217
0.0154018571
0.0008765870
-0.0119426573
-0.0230622588
-0.0325822149
-0.0406961370
-0.0471791535
-0.0529506643
-0.0600670555
-0.0701172044
-0.0842175554
-0.1030121438
-0.1266725953
-0.1548981264
-0.1872929805
-0.2177127906
-0.2330677247
-0.2226065002
-0.1783363208
-0.0950228270
0.0298099036
0.1958793568
0.4004841420
0.6268002996
0.8312956272
0.9781455857
1.0435766424
1.0158662711
0.8953392389
0.6990780808
0.4668453332
0.2347123365
0.0291963184
-0.1327402829
-0.2436896654
-0.3010122689
-0.3123110541
-0.2927939235
-0.2552516871
-0.2100417862
-0.1650882926
-0.1258819092
-0.0954799698
-0.0745064390
-0.0610004911
-0.0520118912
-0.0458891428
-0.0413080722
-0.0372249116
-0.0328762989
-0.0277792780
-0.0217312985
-0.0148102158
-0.0072904362
0.0010112732
0.0102203611
0.0203919097
0.0315625917
0.0437501505
0.0569534846
0.0711531007
0.0863111277
0.1023713172
0.1192590434
0.1368813029
0.1551547368
0.1740678475
0.1933697933
0.2127843025
0.2320475250
0.2509080293
0.2691268026
0.2864772507
0.3027451978
0.3177288870
0.3312389795
0.3430985556
0.3531431138
0.3612205715
0.3671912644
0.3709279470
0.3723157922
0.3712525099
0.3674920997
0.3609304435
0.3518591847
0.3405632295
0.3273167153
0.3123830112
0.2960147174
0.2784536660
0.2599309201
0.2406667746
0.2208707556
0.2007416207
0.1804673591
0.1602251912
0.1401815691
0.1204921762
0.1013019273
0.0827449688
0.0649446784
0.0480136654
0.0320537704
0.0171560654
0.0034008542
-0.0091423285
-0.0204159967
-0.0304274655
-0.0392603873
-0.0470006368
-0.0537308855
-0.0595306016
-0.0644760505
-0.0686402938
-0.0720931905
-0.0749014730
-0.0771296301
-0.0788395972
-0.0800901193
-0.0809367379
-0.0814317914
-0.0816244149
-0.0815605405
-0.0812828969
-0.0808310098
-0.0802412016
-0.0795465913
-0.0787770952
-0.0779594258
-0.0771170930
-0.0762704030
-0.0754362890
-0.0745877287
-0.0736839188
-0.0727663535
-0.0718688437
-0.0710155174
-0.0702208197
-0.0694895126
-0.0688166754
-0.0681877043
-0.0675783127
-0.0669545311
-0.0662727068
-0.0654795046
-0.0645119060
-0.0632972098
-0.0617530317
-0.0597873048
-0.0572982788
-0.0541745209
-0.0502949151
-0.0455286627
-0.0397352818
-0.0327646079
-0.0244567933
-0.0146423895
-0.0031432820
0.0102050068
0.0253050114
0.0419460564
0.0598710230
0.0787763487
0.0983120280
0.1180816116
0.1376422342
0.1565051109
0.1741354869
0.1899521809
0.2033275682
0.2135875806
0.2200890593
0.2226921373
0.2215130911
0.2167317176
0.2085913310
0.1973987632
0.1835243637
0.1674019995
0.1495290553
0.1304664334
0.1108385481
0.0913331474
0.0726557242
0.0549510103
0.0385948015
0.0239661097
0.0112662553
0.0005188674
-0.0084301161
-0.0159124486
-0.0224375750
-0.0286926314
-0.0355424451
-0.0440263644
-0.0552368289
-0.0718077471
-0.0951119921
-0.1240358012
-0.1549787752
-0.1818538792
-0.1960874420
-0.1883577535
-0.1502429016
-0.0682813967
0.0629378924
0.2397021996
0.4491761042
0.6694018958
0.8692936043
1.0108997211
1.0653236789
1.0210276617
0.8837398910
0.6764546264
0.4392730452
0.2117969015
0.0155073243
-0.1352178465
-0.2338290730
-0.2816051192
-0.2869831257
-0.2604341921
-0.2164038905
-0.1670449925
-0.1210499685
-0.0836509876
-0.0566199176
-0.0383609725
-0.0261117191
-0.0179851354
-0.0124079508
-0.0080884124
-0.0040167737
0.0005363497
0.0060201089
0.0126034226
0.0201749762
0.0283700829
0.0372958266
0.0471599512
0.0580149361
0.0698935866
0.0828090345
0.0967547372
0.1117044785
0.1276123679
0.1444128413
0.1620206603
0.1803309129
0.1992329537
0.2186783508
0.2384275566
0.2582073786
0.2777561327
0.2968236433
0.3151712699
0.3325732982
0.3488176220
0.3637038136
0.3770429533
0.3886576302
0.3983819418
0.4060614939
0.4115534009
0.4147262851
0.4154492463
0.4133652382
0.4085437093
0.4012469743
0.3917297014
0.3802389120
0.3670139807
0.3522866358
0.3362809585
0.3192133835
0.3012926991
0.2827200464
0.2636889202
0.2443851685
0.2249869926
0.2056649288
0.1865806770
0.1678863983
0.1497264388
0.1322374977
0.1155486277
0.0997812348
0.0850490782
0.0714582706
0.0591072586
0.0480443617
0.0381999009
0.0294891564
0.0218304444
0.0151451165
0.0093575604
0.0043951995
0.0001884929
-0.0033290644
-0.0062209416
-0.0085475722
-0.0103663540
-0.0117316489
-0.0126947829
-0.0133040464
-0.0136046922
-0.0136387969
-0.0134451614
-0.0130595272
-0.0125146001
-0.0118400502
-0.0110625117
-0.0102055831
-0.0092898270
-0.0083327699
-0.0073488335
-0.0063492542
-0.0053226871
-0.0042254751
-0.0030931511
-0.0019583450
-0.0008437835
0.0002377101
0.0012832159
0.0022997174
0.0033041016
0.0043231587
0.0053935823
0.0065619695
0.0078848208
0.0094285460
0.0112700766
0.0134973827
0.0162084596
0.0195112059
0.0235234238
0.0283728186
0.0341969993
0.0411434781
0.0493696705
0.0590428956
0.0703403757
0.0834154545
0.0982127536
0.1145680367
0.1322573633
0.1509957979
0.1704374098
0.1901752738
0.2097414695
0.2286070816
0.2461821999
0.2618159193
0.2747966910
0.2845308940
0.2907467994
0.2932819946
0.2920839265
0.2872106887
0.2788311261
0.2672248346
0.2527821615
0.2360042051
0.2175028151
0.1980005923
0.1782815156
0.1587513533
0.1399168251
0.1222424004
0.1060690839
0.0916144164
0.0789724739
0.0681138685
0.0588857476
0.0510117944
0.0440922279
0.0376038025
0.0310447614
0.0228528940
0.0101608627
-0.0085309973
-0.0332124580
-0.0623632358
-0.0930026599
-0.1193633761
-0.1301738810
-0.1149872747
-0.0653228176
0.0253340693
0.1615318048
0.3478982711
0.5650885281
0.7794324033
0.9605703441
1.0814901617
1.1185270319
1.0518818614
0.8902231729
0.6747718833
0.4419166236
0.2205726388
0.0321817880
-0.1092874558
-0.1952565121
-0.2308016372
-0.2296807616
-0.2039662234
-0.1639937703
-0.1183618079
-0.0739312777
-0.0358256577
-0.0074309617
0.0108089294
0.0227026285
0.0305369965
0.0360957584
0.0407507913
0.0454618368
0.0507764031
0.0568297645
0.0633956983
0.0706061718
0.0786156332
0.0874878441
0.0972731387
0.1080084233
0.1197171769
0.1324094505
0.1460818678
0.1607176247
0.1762864918
0.1928138274
0.2102958615
0.2285382028
0.2473432799
0.2665140717
0.2858541075
0.3051674669
0.3242587800
0.3429332271
0.3609965387
0.3782549960
0.3945154302
0.4095852231
0.4232723066
0.4353851630
0.4457328252
0.4541248761
0.4603714490
0.4642831741
0.4655395944
0.4640900573
0.4601304797
0.4538555634
0.4454587956
0.4351324466
0.4230666604
0.4094479325
0.3944611415
0.3782899510
0.3611168097
0.3431229516
0.3244883953
0.3053919449
0.2860111893
0.2665224308
0.2471003501
0.2279182694
0.2091482960
0.1909613222
0.1735270252
0.1570138674
0.1415890963
0.1274108477
0.1144652085
0.1026789755
0.0920003512
0.0823769797
0.0737559467
0.0660837790
0.0593064458
0.0533699800
0.0482216527
0.0438084980
0.0400769917
0.0369730509
0.0344420341
0.0324287415
0.0308774143
0.0297317354
0.0289348292
0.0284292613
0.0281570388
0.0280596104
0.0280915324
0.0282597911
0.0285459691
0.0289299216
0.0293937144
0.0299216241
0.0305001377
0.0311179532
0.0317659787
0.0324373334
0.0331273470
0.0338335597
0.0345556515
0.0352952913
0.0360563160
0.0368447727
0.0376689193
0.0385392245
0.0394683675
0.0404662844
0.0415353555
0.0427377400
0.0441513613
0.0458619314
0.0479628416
0.0505551622
0.0537476418
0.0576567079
0.0624064667
0.0681287030
0.0749628804
0.0830561412
0.0925633062
0.1036468751
0.1165142735
0.1313674307
0.1479267764
0.1658401838
0.1847362168
0.2042259986
0.2239037102
0.2433465904
0.2621149358
0.2797521009
0.2957844982
0.3097215979
0.3210559281
0.3292630748
0.3338016817
0.3341109591
0.3300742356
0.3222501885
0.3112193262
0.2975390034
0.2817434211
0.2643436270
0.2458275149
0.2266598250
0.2072821442
0.1881129054
0.1695473881
0.1519577183
0.1356942036
0.1210888797
0.1083111075
0.0971022463
0.0875263140
0.0793903075
0.0721825760
0.0650728204
0.0569120939
0.0462327968
0.0312486265
0.0102200471
-0.0169171494
-0.0479910963
-0.0784320140
-0.1012694355
-0.1071322057
-0.0864299883
-0.0291185238
0.0738261523
0.2235618003
0.4132883156
0.6282477286
0.8466437762
1.0299118858
1.1388844375
1.1521601317
1.0663423768
0.8960408294
0.6738149648
0.4387077369
0.2181508332
0.0323203478
-0.1063101177
-0.1929694541
-0.2305890450
-0.2290778135
-0.1987505991
-0.1529567414
-0.1030470465
-0.0571484927
-0.0201642308
0.0062264163
0.0235679532
0.0353041936
0.0431495362
0.0485870911
0.0528233581
0.0567824612
0.0611061487
0.0661553918
0.0720156447
0.0784953250
0.0855827055
0.0934757866
0.1022393684
0.1119231635
0.1225617978
0.1341748099
0.1467666552
0.1603267708
0.1748295655
0.1902343634
0.2065045419
0.2236666994
0.2415473542
0.2599388455
0.2786360547
0.2974364058
0.3161398652
0.3345489416
0.3524686865
0.3697066934
0.3860730985
0.4013805806
0.4154428919
0.4280694995
0.4390704300
0.4482582526
0.4554480784
0.4604575615
0.4630630556
0.4630020078
0.4604028112
0.4554375036
0.4482783322
0.4390977527
0.4280684298
0.4153632371
0.4011552570
0.3856177809
0.3689243089
0.3512485502
0.3327644227
0.3136460531
0.2940677773
0.2742041397
0.2542298938
0.2343200020
0.2146496354
0.1953954711
0.1767409315
0.1588717027
0.1419736799
0.1262304532
0.1116751646
0.0982467961
0.0859121466
0.0746363993
0.0643831193
0.0551141830
0.0467897674
0.0393684296
0.0328071105
0.0270611355
0.0220842143
0.0178284407
0.0142442930
0.0112806335
0.0088847089
0.0070021502
0.0055769726
0.0045515756
0.0038667431
0.0034616429
0.0032898119
0.0033522420
0.0036208341
0.0040665415
0.0046623965
0.0053835095
0.0062070697
0.0071123444
0.0080806797
0.0090955002
0.0101423089
0.0112086873
0.0122842954
0.0133608717
0.0144322331
0.0154942753
0.0165449722
0.0175843762
0.0186146184
0.0196395658
0.0206616748
0.0217037724
0.0228041723
0.0240124231
0.0253893084
0.0270082162
0.0289618933
0.0313573064
0.0343126617
0.0379574005
0.0424321989
0.0478889683
0.0544908548
0.0624122398
0.0718418790
0.0830214262
0.0959195403
0.1103720656
0.1261739354
0.1430791716
0.1608008849
0.1790112750
0.1973416300
0.2153823273
0.2326828325
0.2487517004
0.2630565745
0.2750241869
0.2840403587
0.2894502968
0.2907933750
0.2882474507
0.2821248120
0.2727642734
0.2605311809
0.2458174116
0.2290413738
0.2106480072
0.1911087829
0.1709217032
0.1506113018
0.1307286434
0.1118513244
0.0944668164
0.0783668249
0.0639188151
0.0514218577
0.0409314478
0.0322595054
0.0249743746
0.0184008246
0.0116200487
0.0034696652
-0.0074562832
-0.0228073293
-0.0443247656
-0.0718971083
-0.1028546383
-0.1324951461
-0.1540906486
-0.1588873888
-0.1365131375
-0.0794107954
0.0222068780
0.1713205681
0.3615801852
0.5773051016
0.7934837465
0.9768170638
1.0916379135
1.1139544426
1.0376089466
0.8743356193
0.6537605534
0.4173160813
0.1938852151
0.0043093885
-0.1384626124
-0.2294749727
-0.2717648478
-0.2735502798
-0.2455815825
-0.2019129913
-0.1536183861
-0.1086742615
-0.0719597273
-0.0452565079
-0.0272339473
-0.0150650536
-0.0070516908
-0.0018023880
0.0018663119
0.0049298523
0.0081556628
0.0121031591
0.0171237432
0.0233608033
0.0307497139
0.0390178354
0.0478472879
0.0575745397
0.0683027766
0.0800636328
0.0928682789
0.1067074214
0.1215510361
0.1373464080
0.1540192524
0.1714748127
0.1895978686
0.2082527359
0.2272832667
0.2465795028
0.2659752328
0.2851795673
0.3039182581
0.3219340702
0.3389872642
0.3548556967
0.3693348212
0.3822376873
0.3933949413
0.4026548260
0.4098831804
0.4149634403
0.4177966377
0.4183014013
0.4164108488
0.4118277095
0.4045879134
0.3949755130
0.3832649738
0.3697205037
0.3545952884
0.3381314847
0.3205602203
0.3021015939
0.2829646751
0.2633475044
0.2434370933
0.2234094243
0.2034294508
0.1836510969
0.1642172581
0.1452598006
0.1268995614
0.1092463486
0.0923989414
0.0764450897
0.0614615143
0.0475139073
0.0346569313
0.0229344793
0.0123480445
0.0028234761
-0.0057189881
-0.0133541158
-0.0201524847
-0.0261815563
-0.0315056892
-0.0361861389
-0.0402810581
-0.0438454960
-0.0469313994
-0.0495876116
-0.0518597852
-0.0537901295
-0.0554176686
-0.0567783236
-0.0579049126
-0.0588271505
-0.0595716495
-0.0601619185
-0.0606183635
-0.0609582875
-0.0611958903
-0.0613422689
-0.0614054171
-0.0613852598
-0.0612196109
-0.0609234854
-0.0605378555
-0.0600969957
-0.0596259992
-0.0591407401
-0.0586478739
-0.0581448373
-0.0576198481
-0.0570519053
-0.0564107892
-0.0556570614
-0.0547420643
-0.0536079220
-0.0521875395
-0.0504046032
-0.0481735804
-0.0453997200
-0.0419790517
-0.0377983868
-0.0327353176
-0.0266582175
-0.0194262413
-0.0108893250
-0.0008881857
0.0107477836
0.0241342623
0.0391468441
0.0555829706
0.0731940626
0.0916854887
0.1107165644
0.1299005530
0.1488046651
0.1669500585
0.1838118386
0.1988190525
0.2113546647
0.2207555771
0.2264510188
0.2283560141
0.2265436335
0.2211556702
0.2124027465
0.2005643150
0.1859886574
0.1690928853
0.1503629400
0.1303535922
0.1096884426
0.0890599212
0.0691413202
0.0501076237
0.0323608449
0.0162406021
0.0019400654
-0.0104940441
-0.0211614532
-0.0303083377
-0.0383273215
-0.0457574772
-0.0532843258
-0.0616943126
-0.0715993167
-0.0860704345
-0.1071141463
-0.1345308625
-0.1659149231
-0.1966545980
-0.2199320871
-0.2267235201
-0.2068441536
-0.1531181965
-0.0547190308
0.0916658653
0.2800987171
0.4953913644
0.7131040315
0.8997039051
1.0192855604
1.0480781751
0.9790266929
0.8220598949
0.6040903994
0.3669948941
0.1433820678
-0.0463059684
-0.1890494079
-0.2797718458
-0.3213402644
-0.3220751128
-0.2930865285
-0.2486384953
-0.1999280895
-0.1549500221
-0.1184966399
-0.0921579247
-0.0742579918
-0.0619781229
-0.0537526111
-0.0482543388
-0.0443466710
-0.0410817663
-0.0377009016
-0.0336359022
-0.0285091848
-0.0221337583
-0.0145132229
-0.0058417708
0.0034970059
0.0135086855
0.0244992319
0.0365012112
0.0495252806
0.0635601893
0.0785727779
0.0945079784
0.1112888147
0.1288164021
0.1469699475
0.1656067492
0.1845621974
0.2036497736
0.2226767201
0.2415221486
0.2599059007
0.2775340543
0.2941367383
0.3094683078
0.3233085731
0.3354628437
0.3457619273
0.3540621308
0.3602452594
0.3642186172
0.3659150071
0.3652927232
0.3623354768
0.3570524281
0.3493554659
0.3393253423
0.3272370755
0.3133556925
0.2979362291
0.2812237298
0.2634532477
0.2448498447
0.2256285915
0.2059945673
0.1861428603
0.1662585670
0.1465168146
0.1270831852
0.1081136905
0.0897543671
0.0721412605
0.0554004249
0.0396479230
0.0249898265
0.0115274116
-0.0007129917
-0.0117957400
-0.0217866406
-0.0307500827
-0.0387490373
-0.0458450573
-0.0520982775
-0.0575674144
-0.0623097665
-0.0663812140
-0.0698362190
-0.0727278256
-0.0751076596
-0.0770259285
-0.0785314220
-0.0796715113
-0.0804921447
-0.0810377351
-0.0813511588
-0.0814738688
-0.0814458999
-0.0813058689
-0.0810909742
-0.0808309705
-0.0804563132
-0.0799741910
-0.0794273673
-0.0788516679
-0.0782760141
-0.0777225702
-0.0772067483
-0.0767372085
-0.0763158581
-0.0759378526
-0.0755915949
-0.0752587358
-0.0749141736
-0.0745260546
-0.0740557726
-0.0734579692
-0.0726805338
-0.0716645944
-0.0703442917
-0.0686467592
-0.0664923651
-0.0637947257
-0.0604607048
-0.0564137731
-0.0515821020
-0.0456653456
-0.0384005944
-0.0295953608
-0.0191275789
-0.0069456046
0.0069317846
0.0224153892
0.0393455882
0.0574923387
0.0765551759
0.0961632136
0.1158751436
0.1352173011
0.1536114347
0.1703300647
0.1847492613
0.1963577245
0.2047567545
0.2096593796
0.2108902116
0.2083864329
0.2021978495
0.1924585827
0.1796240070
0.1642928113
0.1470462828
0.1284483072
0.1090453606
0.0893662984
0.0699223347
0.0512072697
0.0336636733
0.0172614035
0.0023893177
-0.0105723186
-0.0214839855
-0.0304469095
-0.0378030630
-0.0441351646
-0.0502666790
-0.0572618167
-0.0664255347
-0.0793035044
-0.1004201239
-0.1360174019
-0.1760709528
-0.2105804717
-0.2309588204
-0.2300320269
-0.2020392860
-0.1426329591
-0.0488785741
0.0807451748
0.2463464266
0.4466201537
0.6693701594
0.8685215298
1.0039041059
1.0508900175
1.0003569468
0.8586331097
0.6502752607
0.4153124144
0.1873932868
-0.0093392902
-0.1602483681
-0.2582829649
-0.3030969341
-0.3081704584
-0.2862804798
-0.2483568857
-0.2034824997
-0.1588930822
-0.1199773303
-0.0902768776
-0.0709075142
-0.0583918497
-0.0502747616
