ECG
1.0326562605
0.9900393479
0.8794366435
0.7219904410
0.5399456504
0.3551689589
0.1887879947
0.0537994438
-0.0457711988
-0.1089885809
-0.1377921027
-0.1369959166
-0.1142889274
-0.0797717290
-0.0413813270
-0.0044272830
0.0273686143
0.0519043196
0.0686975318
0.0788856932
0.0852038359
0.0897537743
0.0930078300
0.0955658083
0.0979039682
0.1003750225
0.1032081299
0.1065088714
0.1102592732
0.1143876875
0.1189994918
0.1241554631
0.1299034276
0.1362843830
0.1433324996
0.1510751191
0.1595327558
0.1687190955
0.1786409963
0.1892984882
0.2006847732
0.2127877015
0.2257162162
0.2394370543
0.2537966219
0.2686443587
0.2838327385
0.2992172686
0.3146564901
0.3300119778
0.3451483403
0.3599330339
0.3742356615
0.3879285951
0.4008872403
0.4129900363
0.4241184562
0.4341570068
0.4429932286
0.4505176958
0.4566240164
0.4612088322
0.4641718186
0.4654156849
0.4648461741
0.4623492984
0.4579563012
0.4518272289
0.4441194900
0.4349872559
0.4245814612
0.4130498039
0.4005367449
0.3871835082
0.3731280811
0.3585052139
0.3434466743
0.3280822107
0.3125386991
0.2969397784
0.2814058509
0.2660540819
0.2509983999
0.2363494966
0.2222148268
0.2086986082
0.1959018220
0.1839222124
0.1728419606
0.1626553320
0.1533241361
0.1448107121
0.1370776838
0.1300879601
0.1238047347
0.1181914863
0.1132119787
0.1088302603
0.1050106646
0.1017178100
0.0989166000
0.0965719941
0.0946481573
0.0931092289
0.0919196336
0.0910440809
0.0904475652
0.0900953658
0.0899530471
0.0899864583
0.0901617335
0.0904452918
0.0908038372
0.0912187369
0.0916959332
0.0922276525
0.0928062179
0.0934243959
0.0940753976
0.0947528777
0.0954509350
0.0961641124
0.0968873968
0.0976162189
0.0983464536
0.0990744199
0.0997970397
0.1005125406
0.1012198841
0.1019184760
0.1026081660
0.1032892478
0.1039624593
0.1046289822
0.1052904422
0.1059489092
0.1066068968
0.1072759771
0.1079577937
0.1086416270
0.1093205078
0.1099912228
0.1106543141
0.1113140795
0.1119785726
0.1126596025
0.1133727341
0.1141372880
0.1149763402
0.1159167226
0.1169890228
0.1182275378
0.1196699866
0.1213576629
0.1232273165
0.1253491628
0.1279345491
0.1311669972
0.1352022028
0.1401680355
0.1461645393
0.1532639320
0.1615106055
0.1709211260
0.1814842335
0.1931608422
0.2058840404
0.2195590905
0.2340634287
0.2492466656
0.2649309029
0.2809664148
0.2968959856
0.3121483860
0.3262235893
0.3386927724
0.3491982139
0.3574527755
0.3632402877
0.3664157838
0.3669055002
0.3647068764
0.3598885552
0.3525903824
0.3430234071
0.3314421651
0.3181712499
0.3037196045
0.2885603405
0.2731157242
0.2577571756
0.2428052691
0.2285297330
0.2151494501
0.2028324569
0.1916959445
0.1818062576
0.1731788956
0.1657785116
0.1595224518
0.1543757506
0.1501493593
0.1464996164
0.1429817565
0.1390494233
0.1340546674
0.1272479467
0.1177781264
0.1046924789
0.0869366835
0.0640326976
0.0393151778
0.0177619052
0.0047554757
0.0060824188
0.0279331980
0.0768965412
0.1578392666
0.2723716294
0.4174232798
0.5838469219
0.7564183138
0.9138362678
1.0289538378
1.0811400607
1.0658836643
0.9854745346
0.8486435678
0.6705631435
0.4728474702
0.2835525871
0.1234068887
-0.0073479526
-0.1055533975
-0.1703048421
-0.2029754554
-0.2072161793
-0.1889557291
-0.1564005931
-0.1182743799
-0.0796095511
-0.0439794955
-0.0138227291
0.0095572087
0.0259917553
0.0364473251
0.0430253094
0.0481396463
0.0521273257
0.0554172643
0.0583919549
0.0613560284
0.0645368727
0.0680842493
0.0720699649
0.0764878703
0.0812735856
0.0864897327
0.0922020302
0.0984556380
0.1052893085
0.1127353868
0.1208198103
0.1295621091
0.1389754056
0.1490664150
0.1598354449
0.1712763954
0.1833767590
0.1961176210
0.2094736591
0.2234651123
0.2381763978
0.2534636983
0.2691709474
0.2851474862
0.3012478553
0.3173303661
0.3332579612
0.3488989856
0.3641271915
0.3788217381
0.3928671916
0.4061535255
0.4185761204
0.4300357637
0.4404386502
0.4496963817
0.4577259671
0.4644498223
0.4697957705
0.4736970417
0.4760922734
0.4769255098
0.4761462024
0.4737092098
0.4695236688
0.4635047388
0.4558264498
0.4466703159
0.4362104679
0.4246139135
0.4120424009
0.3986513119
0.3845886492
0.3699950328
0.3550036992
0.3397405022
0.3243239123
0.3088650170
0.2934675206
0.2782277446
0.2632346270
0.2485697232
0.2343072052
0.2205138619
0.2072490994
0.1945649405
0.1825060250
0.1711096095
0.1604055677
0.1504163901
0.1411571842
0.1326356744
0.1248522020
0.1177997742
0.1114752110
0.1058473955
0.1008679245
0.0964901883
0.0926693774
0.0893624820
0.0865282924
0.0841273986
0.0821221904
0.0804768577
0.0791573903
0.0781315775
0.0773690090
0.0768410741
0.0765209619
0.0763836616
0.0764059622
0.0765664526
0.0768455214
0.0772253573
0.0776899489
0.0782250845
0.0788183524
0.0794591409
0.0801386378
0.0808498073
0.0815872864
0.0823475369
0.0831288295
0.0839325729
0.0847590131
0.0856014779
0.0864535903
0.0873095305
0.0881640361
0.0890124017
0.0898504794
0.0906746783
0.0914819650
0.0922698633
0.0930364541
0.0937803757
0.0945008237
0.0951975508
0.0958708671
0.0965216397
0.0971512934
0.0977618098
0.0983557280
0.0989361443
0.0995068045
0.1000729633
0.1006409950
0.1012178381
0.1018109887
0.1024284998
0.1030789818
0.1037716025
0.1045160867
0.1053227167
0.1062023318
0.1071662017
0.1081382404
0.1091481013
0.1103363780
0.1118324307
0.1137543864
0.1162091388
0.1192923483
0.1230884420
0.1276706138
0.1331008243
0.1394298008
0.1466970373
0.1549307944
0.1641479873
0.1743529749
0.1855379770
0.1976839571
0.2107606451
0.2247265378
0.2395301340
0.2551025447
0.2710626490
0.2869567192
0.3023696146
0.3169247810
0.3302842511
0.3421486444
0.3522571671
0.3603876121
0.3663563591
0.3700183745
0.3712672116
0.3700350103
0.3662924972
0.3600485569
0.3513442336
0.3405117788
0.3279750510
0.3141298038
0.2993453512
0.2839639443
0.2682995981
0.2526380705
0.2372368625
0.2223252181
0.2081041240
0.1947463101
0.1823962492
0.1711701570
0.1611558600
0.1522060976
0.1442954347
0.1375481553
0.1319655797
0.1274260644
0.1236850021
0.1203748219
0.1170049889
0.1129620048
0.1075094072
0.0997877702
0.0888240195
0.0737718177
0.0544359470
0.0317522118
0.0078492620
-0.0139497432
-0.0291270995
-0.0319705579
-0.0171760840
0.0206911275
0.0881770725
0.1878252012
0.3180755889
0.4732649364
0.6436265702
0.8155175913
0.9707945753
1.0837666748
1.1360773299
1.1192299206
1.0345877661
0.8933559600
0.7166222423
0.5296903177
0.3529730087
0.2010300032
0.0825678541
0.0011528613
-0.0409438709
-0.0518873193
-0.0407879774
-0.0155123530
0.0173170314
0.0523216390
0.0853669184
0.1135623035
0.1352612140
0.1500610550
0.1594773557
0.1655553471
0.1693555115
0.1717705935
0.1735263066
0.1751813334
0.1771273253
0.1795889027
0.1826236550
0.1861221406
0.1899012508
0.1941488071
0.1989446393
0.2043339525
0.2103563874
0.2170436976
0.2244204121
0.2325056340
0.2413130719
0.2508510403
0.2611224590
0.2721664065
0.2840745566
0.2967506082
0.3100828189
0.3239585475
0.3382642542
0.3528855001
0.3677069478
0.3826123612
0.3974846051
0.4122056460
0.4266565513
0.4407174898
0.4542677315
0.4671856475
0.4793487105
0.4906334941
0.5009156733
0.5100701632
0.5179732364
0.5245020987
0.5295331104
0.5329417329
0.5346025287
0.5343771653
0.5322269047
0.5282697979
0.5226295688
0.5154300491
0.5067951778
0.4968490016
0.4857156747
0.4735194592
0.4603847243
0.4464359472
0.4317977123
0.4165947120
0.4009517459
0.3849937214
0.3688456535
0.3526326646
0.3364799848
0.3205129518
0.3048568732
0.2896346879
0.2749672170
0.2609752954
0.2477798650
0.2354654832
0.2239972062
0.2133534090
0.2035127739
0.1944522868
0.1861472367
0.1785712161
0.1716961209
0.1654921502
0.1599278067
0.1549698963
0.1505835282
0.1467321152
0.1433773731
0.1404793214
0.1379962827
0.1358848833
0.1341000524
0.1325950230
0.1313213311
0.1302289589
0.1292689343
0.1284169810
0.1276751088
0.1270293103
0.1264665822
0.1259749863
0.1255436497
0.1251627645
0.1248235881
0.1245184432
0.1242407174
0.1239848638
0.1237464005
0.1235219108
0.1233090431
0.1231065112
0.1229140939
0.1227326353
0.1225640446
0.1224112961
0.1222784296
0.1221706465
0.1220991311
0.1220647544
0.1220628959
0.1220877001
0.1221323109
0.1221910006
0.1222592256
0.1223336272
0.1224120312
0.1224934479
0.1225780723
0.1226672839
0.1227636468
0.1228709095
0.1229940055
0.1231390524
0.1233133528
0.1235253934
0.1237848460
0.1241025666
0.1244905959
0.1249621592
0.1255311834
0.1261864257
0.1269916847
0.1280486718
0.1294548168
0.1313033465
0.1336850039
0.1366880498
0.1403965424
0.1448902586
0.1502446940
0.1565310630
0.1638162989
0.1721630536
0.1816296977
0.1922703208
0.2041786649
0.2173596681
0.2314661851
0.2461410240
0.2610379164
0.2758215182
0.2901674094
0.3037620937
0.3163029991
0.3274984776
0.3370678051
0.3447411817
0.3502597313
0.3533755021
0.3538514299
0.3514567894
0.3460136494
0.3378660226
0.3274732426
0.3152676918
0.3016548014
0.2870130510
0.2716939692
0.2560221331
0.2402951685
0.2247837501
0.2097316010
0.1953554931
0.1818452472
0.1693637325
0.1580468671
0.1480036177
0.1392877410
0.1316738140
0.1251959745
0.1198455123
0.1154577112
0.1117118483
0.1081311943
0.1040830034
0.0987782472
0.0912715836
0.0805736029
0.0656084936
0.0459902525
0.0227737077
-0.0015366152
-0.0229864935
-0.0361720069
-0.0343960839
-0.0129826293
0.0362156280
0.1189786199
0.2359608778
0.3826915322
0.5495743129
0.7218875491
0.8804551765
1.0009802674
1.0591789318
1.0430593204
0.9535778061
0.8046459861
0.6228751550
0.4372483638
0.2696299938
0.1342363037
0.0380950546
-0.0182721363
-0.0399366288
-0.0335412420
-0.0070764748
0.0301194945
0.0677803308
0.1001344224
0.1255584651
0.1435636117
0.1547565169
0.1608393375
0.1644219049
0.1668306742
0.1686043421
0.1702173949
0.1720156832
0.1742164225
0.1769081929
0.1800589329
0.1837093938
0.1879424931
0.1928133837
0.1983686043
0.2046456577
0.2116750968
0.2194806613
0.2280792778
0.2374810600
0.2476893138
0.2587833772
0.2707621130
0.2835051429
0.2968893465
0.3107888617
0.3250750842
0.3396166680
0.3542795250
0.3689268252
0.3834189967
0.3976137256
0.4113659563
0.4245278909
0.4369489898
0.4484759715
0.4589528124
0.4682207471
0.4761183084
0.4824828636
0.4871511224
0.4899572090
0.4907326349
0.4894697923
0.4862749013
0.4812590668
0.4745376840
0.4662304392
0.4564613091
0.4453585613
0.4330547542
0.4196867367
0.4053956484
0.3903269200
0.3746302724
0.3584597176
0.3419735581
0.3253343873
0.3087090891
0.2922688384
0.2761891005
0.2606496316
0.2458344786
0.2318901634
0.2188124018
0.2065982366
0.1952429782
0.1847380748
0.1750711130
0.1662258173
0.1581820505
0.1509158131
0.1443992440
0.1386006201
0.1334843564
0.1290110058
0.1251372596
0.1218159469
0.1189960350
0.1166226294
0.1146369734
0.1129764486
0.1115745747
0.1103610596
0.1093064245
0.1084082844
0.1076427173
0.1069873073
0.1064211773
0.1059265942
0.1054896297
0.1050979994
0.1047409241
0.1044091307
0.1040948523
0.1037918278
0.1034953023
0.1032020269
0.1029102589
0.1026197614
0.1023318037
0.1020491612
0.1017761153
0.1015204838
0.1012965420
0.1010980884
0.1009173009
0.1007481578
0.1005864374
0.1004297180
0.1002773783
0.1001305971
0.0999923530
0.0998674018
0.0997609449
0.0996779197
0.0996248902
0.0996102200
0.0996440735
0.0997384147
0.0999070080
0.1001654180
0.1005310092
0.1010229465
0.1016621947
0.1024707576
0.1034417891
0.1046768081
0.1063216600
0.1085107171
0.1113668783
0.1150015695
0.1195147432
0.1249948788
0.1315189823
0.1391525867
0.1479497515
0.1579530633
0.1691936447
0.1816961246
0.1955531482
0.2104181682
0.2257968144
0.2412224443
0.2562561424
0.2704867208
0.2835307187
0.2950324027
0.3046637667
0.3121245320
0.3171421472
0.3194717880
0.3188963578
0.3152212369
0.3083105731
0.2986278818
0.2867575590
0.2732395493
0.2585693458
0.2431979906
0.2275320741
0.2119337357
0.1967206631
0.1821660912
0.1684986589
0.1559023089
0.1445165088
0.1344362748
0.1257121717
0.1183442260
0.1121972598
0.1071099913
0.1028079020
0.0988645219
0.0947014285
0.0895882479
0.0826426539
0.0728303685
0.0589651618
0.0397106432
0.0153550751
-0.0092485732
-0.0282154407
-0.0352837108
-0.0238146118
0.0132075834
0.0831116410
0.1899760708
0.3298621473
0.4927106880
0.6625846243
0.8176693630
0.9302728767
0.9704847274
0.9341143268
0.8318607414
0.6786333796
0.4936887794
0.3006306081
0.1272422452
-0.0109783784
-0.1139192217
-0.1814157647
-0.2153684838
-0.2197428521
-0.2005693390
-0.1659434105
-0.1260051613
-0.0890814450
-0.0573802076
-0.0319621523
-0.0131578593
-0.0005677850
0.0069377440
0.0112192314
0.0145329239
0.0173798712
0.0199722368
0.0225511626
0.0253121124
0.0284048721
0.0319335499
0.0359565760
0.0404867026
0.0455000561
0.0510362567
0.0571645717
0.0639408623
0.0714095955
0.0796038443
0.0885452875
0.0982442097
0.1086995015
0.1198986595
0.1318177859
0.1444215889
0.1576633826
0.1714850871
0.1858172212
0.2005779758
0.2156724160
0.2310250390
0.2466146386
0.2622355560
0.2776745887
0.2927326324
0.3072246809
0.3209798262
0.3338412586
0.3456662664
0.3563262360
0.3657066523
0.3737070981
0.3802412545
0.3852369007
0.3886359141
0.3903942703
0.3904820431
0.3888834043
0.3855966242
0.3806340709
0.3740019316
0.3656784319
0.3558377913
0.3446740345
0.3323743816
0.3191181310
0.3050764972
0.2904126107
0.2752815176
0.2598301803
0.2441974769
0.2285142014
0.2129030639
0.1974786902
0.1823476221
0.1676083174
0.1533511498
0.1396584089
0.1266043001
0.1142549449
0.1026683807
0.0918945606
0.0819789641
0.0729634223
0.0648093211
0.0574655224
0.0508824781
0.0450122297
0.0398083624
0.0352257224
0.0312203950
0.0277500293
0.0247738642
0.0222527283
0.0201490400
0.0184268076
0.0170516290
0.0159906921
0.0152127743
0.0146882430
0.0143890553
0.0142887581
0.0143624882
0.0145869718
0.0149405254
0.0154030548
0.0159560560
0.0165826144
0.0172674055
0.0179966944
0.0187583539
0.0195514687
0.0203779176
0.0212332775
0.0221131871
0.0230135898
0.0239307744
0.0248613748
0.0258023707
0.0267510870
0.0277051942
0.0286627080
0.0296219898
0.0305817463
0.0315410295
0.0324992370
0.0334561118
0.0344117423
0.0353665622
0.0363213509
0.0372772331
0.0382356788
0.0391985035
0.0401678683
0.0411462795
0.0421365890
0.0431419940
0.0441660366
0.0452124042
0.0462848502
0.0473856993
0.0485131188
0.0497032740
0.0510030947
0.0524640899
0.0541423482
0.0560985374
0.0583979050
0.0611102779
0.0643100623
0.0680762440
0.0724923880
0.0776466390
0.0836317210
0.0905449375
0.0984881713
0.1075678849
0.1179144148
0.1297580450
0.1429078401
0.1570729062
0.1719623151
0.1872851050
0.2027505589
0.2180686657
0.2329495014
0.2471031078
0.2602394924
0.2720686282
0.2823004543
0.2906448752
0.2968117612
0.3005109486
0.3014522390
0.2993473100
0.2941505932
0.2862799485
0.2761846831
0.2642900142
0.2509970690
0.2366828845
0.2217004078
0.2063784959
0.1910219157
0.1759113440
0.1613033676
0.1474304833
0.1345010982
0.1226998393
0.1121879949
0.1031306085
0.0955681878
0.0892587670
0.0839145510
0.0792135931
0.0747997950
0.0702829066
0.0652385265
0.0592081015
0.0516989268
0.0421841460
0.0301027511
0.0148595826
-0.0041746708
-0.0277213970
-0.0536759493
-0.0725763787
-0.0757304427
-0.0564731441
-0.0101667315
0.0657993005
0.1720082120
0.3070160164
0.4673505669
0.6419857022
0.8058340920
0.9350701949
1.0085938787
1.0103100086
0.9406432377
0.8136050733
0.6488993764
0.4653370740
0.2814044324
0.1130248690
-0.0306312066
-0.1441087542
-0.2247326867
-0.2726078694
-0.2906191206
-0.2844025132
-0.2601843548
-0.2247924011
-0.1847223767
-0.1450615449
-0.1094887083
-0.0802742087
-0.0582799265
-0.0429583834
-0.0323508599
-0.0244175332
-0.0186058411
-0.0142482326
-0.0107766992
-0.0077227751
-0.0047175372
-0.0014916051
0.0021248589
0.0062021500
0.0107110205
0.0155256724
0.0206677368
0.0262526101
0.0323255954
0.0389263707
0.0460889888
0.0538418769
0.0622078373
0.0712040466
0.0808420565
0.0911277932
0.1020615577
0.1136380255
0.1258456995
0.1386656229
0.1520728297
0.1660676400
0.1807988249
0.1961521713
0.2119654518
0.2280827912
0.2443546662
0.2606379060
0.2767956915
0.2926975559
0.3082193846
0.3232434150
0.3376582367
0.3513587914
0.3642463728
0.3762286268
0.3872195516
0.3971394972
0.4059151660
0.4134796123
0.4197722427
0.4247388157
0.4283314422
0.4305089632
0.4312379445
0.4304917013
0.4282499230
0.4244986512
0.4192302794
0.4124253678
0.4041210349
0.3944763240
0.3836488489
0.3717902849
0.3590463685
0.3455568978
0.3314557326
0.3168707936
0.3019240634
0.2867315860
0.2714034665
0.2560438719
0.2407510304
0.2256172316
0.2107288268
0.1961662285
0.1820039107
0.1683104090
0.1551478945
0.1425709921
0.1306280089
0.1193613131
0.1088073345
0.0989965644
0.0899569069
0.0817223243
0.0742602206
0.0675257686
0.0614754268
0.0560669393
0.0512593357
0.0470129314
0.0432893276
0.0400514109
0.0372633537
0.0348906140
0.0328999355
0.0312593474
0.0299381649
0.0289069885
0.0281377046
0.0276034850
0.0272787874
0.0271398222
0.0271659397
0.0273381572
0.0276387527
0.0280512895
0.0285606169
0.0291528697
0.0298154684
0.0305371192
0.0313078137
0.0321188295
0.0329627297
0.0338333630
0.0347258638
0.0356366522
0.0365648342
0.0375202828
0.0385019860
0.0395063355
0.0405301565
0.0415707071
0.0426256790
0.0436931971
0.0447718196
0.0458605380
0.0469582059
0.0480616778
0.0491675944
0.0502730294
0.0513754902
0.0524729172
0.0535636840
0.0546465979
0.0557208990
0.0567862611
0.0578427911
0.0588910292
0.0599319490
0.0609669573
0.0619978941
0.0630270330
0.0640570805
0.0650911768
0.0661328950
0.0671862419
0.0682556572
0.0693460141
0.0704626192
0.0716112121
0.0727861626
0.0739501209
0.0751842345
0.0765843311
0.0782414849
0.0802420387
0.0826676045
0.0855950626
0.0890965627
0.0932395228
0.0980866299
0.1036958400
0.1101203777
0.1174087365
0.1256046785
0.1347472350
0.1448707058
0.1560046596
0.1681739341
0.1814009013
0.1958751305
0.2113860291
0.2274982212
0.2438077969
0.2599423128
0.2755607917
0.2903528482
0.3040353622
0.3163554207
0.3270915762
0.3360538477
0.3430837206
0.3480541464
0.3508695429
0.3514657943
0.3498102508
0.3459017293
0.3397705126
0.3314783500
0.3211349120
0.3090609158
0.2956776697
0.2813741884
0.2665052425
0.2513913588
0.2363188201
0.2215396653
0.2072716894
0.1936984434
0.1809692343
0.1691991253
0.1584693619
0.1488291407
0.1402942596
0.1328463429
0.1264327715
0.1209720478
0.1165282809
0.1128930020
0.1096757086
0.1064485666
0.1027464110
0.0980667449
0.0918697406
0.0835782388
0.0725777488
0.0582164486
0.0398051851
0.0168871409
-0.0080063630
-0.0304398800
-0.0459179474
-0.0499138970
-0.0378698541
-0.0051967382
0.0527257372
0.1404383475
0.2587877817
0.4031749077
0.5658166671
0.7358367623
0.8992656569
1.0390405752
1.1350055025
1.1674540248
1.1326607799
1.0346989477
0.8853421442
0.7043183562
0.5169694762
0.3399682598
0.1859648675
0.0631920137
-0.0249581291
-0.0776181705
-0.0987540987
-0.0957387305
-0.0753464028
-0.0437518715
-0.0065303119
0.0313426815
0.0654909500
0.0922491038
0.1113524835
0.1246543867
0.1336729055
0.1397007017
0.1438050070
0.1468276229
0.1493849209
0.1518683907
0.1545002898
0.1573747047
0.1605439645
0.1640571297
0.1679599926
0.1722950769
0.1771016382
0.1824156634
0.1882698713
0.1946937121
0.2017133677
0.2093517517
0.2176285092
0.2265600170
0.2362336582
0.2467079501
0.2579208644
0.2698077255
0.2823008556
0.2953295728
0.3088201914
0.3226960219
0.3368773707
0.3512815407
0.3658228306
0.3804125356
0.3949589466
0.4093673509
0.4235400320
0.4373762694
0.4507723387
0.4636215117
0.4758140564
0.4872372369
0.4977753134
0.5073095421
0.5157181757
0.5228764628
0.5286566480
0.5329279724
0.5355562153
0.5363598412
0.5353326173
0.5325892103
0.5282432269
0.5224072152
0.5151926644
0.5067100053
0.4970686096
0.4863767907
0.4747418029
0.4622698420
0.4490660452
0.4352344907
0.4208781983
0.4060991288
0.3909981845
0.3756752088
0.3602289867
0.3447572442
0.3293566486
0.3141228088
0.2991502745
0.2845325372
0.2703620293
0.2567304130
0.2437302971
0.2314540837
0.2199931191
0.2093845155
0.1995665421
0.1905043371
0.1821637704
0.1745110388
0.1675126668
0.1611355058
0.1553467343
0.1501138583
0.1454047108
0.1411874521
0.1374305697
0.1341028783
0.1311735196
0.1286119629
0.1263880044
0.1244717676
0.1228337032
0.1214445891
0.1202755304
0.1192979595
0.1184836513
0.1178048345
0.1172343182
0.1167454183
0.1163126285
0.1159336913
0.1156081365
0.1153300232
0.1150938328
0.1148944689
0.1147272576
0.1145879475
0.1144727094
0.1143781364
0.1143012441
0.1142394704
0.1141906756
0.1141531425
0.1141255759
0.1141071033
0.1140972744
0.1140960613
0.1141038586
0.1141214830
0.1141501738
0.1141915200
0.1142469591
0.1143180781
0.1144069029
0.1145239687
0.1146696732
0.1148352463
0.1150141553
0.1152021052
0.1153970383
0.1155991343
0.1158108105
0.1160367213
0.1162837591
0.1165610531
0.1168799705
0.1172541155
0.1176993301
0.1182336936
0.1188775225
0.1196533712
0.1205860312
0.1217025316
0.1230154537
0.1245053420
0.1262966814
0.1285201762
0.1312927073
0.1347179754
0.1388867821
0.1438770444
0.1497537947
0.1565691809
0.1643624667
0.1731600307
0.1829753676
0.1938090871
0.2056489146
0.2184696910
0.2322333727
0.2469696763
0.2625454376
0.2784870311
0.2943500882
0.3097277101
0.3242504679
0.3375864024
0.3494410243
0.3595573142
0.3677157225
0.3737345600
0.3774731369
0.3788301060
0.3777416075
0.3741812512
0.3681601167
0.3597265842
0.3490134951
0.3364157607
0.3223695169
0.3072784566
0.2915138296
0.2754144427
0.2592866594
0.2434044003
0.2280091428
0.2133099211
0.1994833266
0.1866735074
0.1749921685
0.1645185719
0.1552327359
0.1469408545
0.1397687800
0.1337647811
0.1288520987
0.1248247510
0.1213498072
0.1179700641
0.1141037972
0.1090447388
0.1019620783
0.0919004622
0.0777799935
0.0587940955
0.0360828688
0.0120471690
-0.0100389141
-0.0260280557
-0.0308996971
-0.0187600448
0.0161384263
0.0777803783
0.1710122827
0.2961075219
0.4483689718
0.6181290020
0.7907494753
0.9468774159
1.0663549155
1.1269319707
1.1149956831
1.0283242483
0.8801223190
0.6995020401
0.5134769355
0.3443136534
0.2081185855
0.1103825554
0.0514998242
0.0285339685
0.0352178804
0.0619539131
0.0978536451
0.1350753867
0.1679692287
0.1932966712
0.2102306239
0.2203554062
0.2264316645
0.2297970813
0.2316470675
0.2328896771
0.2341444352
0.2357423384
0.2377255977
0.2400645101
0.2428908067
0.2462567529
0.2502110281
0.2547987693
0.2600615716
0.2660374883
0.2727610303
0.2802639364
0.2886018374
0.2977842685
0.3077859014
0.3185699334
0.3300880879
0.3422806139
0.3550762861
0.3683924051
0.3821347973
0.3961978146
0.4104643351
0.4248057624
0.4390820259
0.4531415809
0.4668214082
0.4799471344
0.4923343433
0.5037880876
0.5141019621
0.5230580876
0.5304346423
0.5361075743
0.5400292385
0.5421683666
0.5425103213
0.5410570965
0.5378273172
0.5328562396
0.5261957510
0.5179143697
0.5080972452
0.4968461582
0.4842795204
0.4705323747
0.4557563951
0.4401198867
0.4238077858
0.4070216596
0.3899797068
0.3729167569
0.3560841852
0.3397051223
0.3238108140
0.3084751090
0.2937725528
0.2797671143
0.2665121855
0.2540505820
0.2424145425
0.2316257291
0.2216952270
0.2126235451
0.2044006153
0.1970057928
0.1904078563
0.1845650076
0.1794248720
0.1749244979
0.1709903572
0.1675383449
0.1644792322
0.1617973535
0.1594653638
0.1574415267
0.1556866977
0.1541644345
0.1528424240
0.1516920711
0.1506873981
0.1498050191
0.1490241400
0.1483265584
0.1476966634
0.1471214361
0.1465904491
0.1460958671
0.1456324460
0.1451975338
0.1447910701
0.1444155863
0.1440745911
0.1437647123
0.1434828359
0.1432266917
0.1429945928
0.1427854350
0.1425986975
0.1424344423
0.1422933146
0.1421765427
0.1420857873
0.1420210278
0.1419810132
0.1419648571
0.1419722276
0.1420033758
0.1420591360
0.1421409255
0.1422507445
0.1423911766
0.1425653882
0.1427771289
0.1430307312
0.1433310939
0.1436798245
0.1441103331
0.1446778698
0.1454438577
0.1464758920
0.1478477409
0.1496393448
0.1519368168
0.1548324426
0.1584246805
0.1628181613
0.1681238477
0.1744614750
0.1819590664
0.1907604929
0.2010355935
0.2126423413
0.2253521137
0.2389157418
0.2530635105
0.2675051590
0.2819298802
0.2960063210
0.3093825822
0.3216862186
0.3325242390
0.3414831061
0.3481287364
0.3520065006
0.3526535606
0.3500005420
0.3443980950
0.3362134363
0.3258136834
0.3135658549
0.2998368704
0.2849934377
0.2694001727
0.2534199286
0.2374155605
0.2217498575
0.2067855100
0.1928851090
0.1803830058
0.1690860876
0.1591001504
0.1506091095
0.1436445337
0.1380856452
0.1336593200
0.1299400875
0.1263501307
0.1221592862
0.1164850440
0.1082925478
0.0963654393
0.0795364742
0.0580252580
0.0338595252
0.0108765142
-0.0052770335
-0.0071448211
0.0128255289
0.0612680217
0.1461407814
0.2685155458
0.4221974972
0.5937252635
0.7623709172
0.9003223964
0.9803386604
0.9872336090
0.9183970884
0.7837476442
0.6057325208
0.4178881937
0.2440015292
0.0974173215
-0.0130657171
-0.0838673284
-0.1166257084
-0.1181075209
-0.0965784541
-0.0619709097
-0.0233258663
0.0127976281
0.0423224300
0.0636527832
0.0776743202
0.0868598211
0.0926447600
0.0962219079
0.0985737553
0.1004701979
0.1024685364
0.1049134763
0.1079371284
0.1114590081
0.1152826135
0.1195822219
0.1244449214
0.1299224242
0.1360587971
0.1428904614
0.1504461928
0.1587471217
0.1678067327
0.1776308652
0.1882177127
0.1995578235
0.2116856248
0.2246011894
0.2381745404
0.2522731959
0.2667632160
0.2815091780
0.2963741766
0.3112198239
0.3259062490
0.3402920986
0.3542345365
0.3675892439
0.3802104193
0.3919507783
0.4026615541
0.4121924969
0.4203918745
0.4271064716
0.4321815907
0.4354610510
0.4368040226
0.4362196425
0.4337817563
0.4295718990
0.4236792955
0.4162008596
0.4072411644
0.3969116991
0.3853308519
0.3726248127
0.3589275128
0.3443805734
0.3291333048
0.3133427068
0.2971734685
0.2807979686
0.2643962751
0.2481561454
0.2322730264
0.2169490945
0.2022886283
0.1883148848
0.1750676977
0.1625793463
0.1508745557
0.1399704971
0.1298767874
0.1205954895
0.1121211121
0.1044406097
0.0975333829
0.0913713318
0.0859203161
0.0811403276
0.0769838924
0.0733959821
0.0703140146
0.0676678534
0.0653798616
0.0634126982
0.0617565872
0.0603792143
0.0592504622
0.0583424103
0.0576293349
0.0570877089
0.0566962025
0.0564356822
0.0562892118
0.0562420515
0.0562816587
0.0563976875
0.0565819886
0.0568286099
0.0571337960
0.0574959882
0.0579157633
0.0583939727
0.0589314412
0.0595342177
0.0601969707
0.0609088828
0.0616602450
0.0624424569
0.0632480267
0.0640705711
0.0649048154
0.0657465934
0.0665928475
0.0674416288
0.0682920966
0.0691445191
0.0700002730
0.0708618433
0.0717328238
0.0726179169
0.0735229335
0.0744547928
0.0754215229
0.0764322604
0.0774972503
0.0786278727
0.0798375361
0.0811418958
0.0825472800
0.0840413818
0.0857482111
0.0878042485
0.0903361341
0.0934606673
0.0972848071
0.1019056722
0.1074105403
0.1138768491
0.1213721954
0.1299543358
0.1396711861
0.1505608218
0.1626514778
0.1759709052
0.1906563814
0.2063118004
0.2223883490
0.2383793097
0.2538200601
0.2682880735
0.2814029226
0.2928264384
0.3022627853
0.3094584810
0.3142022718
0.3163250009
0.3156996067
0.3122411233
0.3059066801
0.2967806372
0.2853433720
0.2721460969
0.2576964970
0.2424587250
0.2268534017
0.2112576161
0.1960049247
0.1813853524
0.1676453918
0.1549880035
0.1435726161
0.1335148258
0.1246487688
0.1169536847
0.1105483099
0.1053789670
0.1012195034
0.0976712675
0.0941631889
0.0899517845
0.0841211586
0.0755830028
0.0630765961
0.0451568190
0.0219725664
-0.0026331617
-0.0238034115
-0.0359760106
-0.0328835677
-0.0075534727
0.0476419937
0.1379344955
0.2629509119
0.4164785379
0.5860600969
0.7529937409
0.8923330504
0.9739062475
0.9853781316
0.9273257872
0.8055247171
0.6335159242
0.4326057882
0.2318663556
0.0618740887
-0.0775987538
-0.1852326801
-0.2598463075
-0.3022355128
-0.3151734321
-0.3034104609
-0.2736742543
-0.2346697266
-0.1953787735
-0.1592655829
-0.1280377589
-0.1027239563
-0.0836651350
-0.0705145594
-0.0622377986
-0.0571127265
-0.0529330815
-0.0491639113
-0.0456918871
-0.0422992023
-0.0388036755
-0.0350588783
-0.0309542042
-0.0264146865
-0.0214009815
-0.0159093684
-0.0099664712
-0.0035470289
0.0034096233
0.0109530611
0.0191232311
0.0279504503
0.0374554065
0.0476491580
0.0585331338
0.0700991334
0.0823293270
0.0951962555
0.1086628302
0.1226823332
0.1371984171
0.1521451052
0.1674467914
0.1830182401
0.1987645866
0.2145859041
0.2304792053
0.2463089302
0.2618801962
0.2770116312
0.2915354623
0.3052975180
0.3181572287
0.3299876264
0.3406753451
0.3501206203
0.3582372894
0.3649527914
0.3702081670
0.3739580589
0.3761707113
0.3768279702
0.3759252835
0.3734717005
0.3694898725
0.3640160525
0.3571000952
0.3487993847
0.3391308114
0.3282350529
0.3162827568
0.3034367818
0.2898516759
0.2756748184
0.2610465434
0.2461001396
0.2309618503
0.2157508739
0.2005793630
0.1855524252
0.1707681227
0.1563174723
0.1422844457
0.1287459691
0.1157719235
0.1034251445
0.0917614225
0.0808295025
0.0706732767
0.0613412790
0.0528137011
0.0450543361
0.0380273399
0.0316972311
0.0260288907
0.0209875616
0.0165387631
0.0126482283
0.0092822006
0.0064074570
0.0039911453
0.0020007760
0.0004042222
-0.0008302804
-0.0017341335
-0.0023383759
-0.0026736841
-0.0027703717
-0.0026583898
-0.0023673269
-0.0019264085
-0.0013644980
-0.0007100957
0.0000086606
0.0007688855
0.0015709810
0.0024092127
0.0032767226
0.0041669829
0.0050737960
0.0059913018
0.0069147542
0.0078412236
0.0087682772
0.0096938121
0.0106160558
0.0115335662
0.0124452313
0.0133502697
0.0142482299
0.0151389910
0.0160227624
0.0169000835
0.0177718242
0.0186391848
0.0195036957
0.0203672176
0.0212319417
0.0221003892
0.0229754119
0.0238601916
0.0247582405
0.0256782318
0.0266389190
0.0276296810
0.0286405265
0.0296649864
0.0306992333
0.0317435665
0.0328026023
0.0338853487
0.0350052108
0.0361799907
0.0374318874
0.0387874970
0.0402778124
0.0419382237
0.0438085179
0.0459328789
0.0483598878
0.0511425224
0.0543121096
0.0578584276
0.0619554338
0.0667712980
0.0724443909
0.0790832835
0.0867667479
0.0955437567
0.1054334831
0.1164253052
0.1284794705
0.1415278442
0.1554726732
0.1701864046
0.1855116867
0.2012613680
0.2172185038
0.2331961215
0.2488225877
0.2636292254
0.2772046908
0.2891949736
0.2993033970
0.3072906174
0.3129746249
0.3162307427
0.3169916276
0.3152472698
0.3110449929
0.3044894539
0.2957423820
0.2849652635
0.2725074589
0.2588022861
0.2442482604
0.2292086678
0.2140110310
0.1989478439
0.1842766425
0.1702201482
0.1569662820
0.1446681647
0.1334441167
0.1233776581
0.1145153182
0.1066744241
0.0998712194
0.0942110309
0.0896699663
0.0860949138
0.0832035428
0.0805843034
0.0776964266
0.0738699240
0.0683055884
0.0600749932
0.0481120852
0.0315720462
0.0109892076
-0.0119931341
-0.0347131186
-0.0534898339
-0.0636240377
-0.0593982805
-0.0344451590
0.0149428839
0.0944791906
0.2065014330
0.3484336980
0.5127864880
0.6871567203
0.8542277275
0.9920219209
1.0799946097
1.1046731834
1.0615919731
0.9558244340
0.8019831464
0.6220871283
0.4358558064
0.2605397242
0.1087038094
-0.0119343018
-0.0984496207
-0.1489639379
-0.1683017841
-0.1642082366
-0.1435931335
-0.1125307007
-0.0762598063
-0.0391839952
-0.0048714896
0.0239448116
0.0453863981
0.0601468847
0.0702582235
0.0770791040
0.0817502672
0.0851945057
0.0881166635
0.0910036364
0.0941243717
0.0975298680
0.1010886425
0.1049142768
0.1090998395
0.1136859107
0.1187099057
0.1242060749
0.1302055055
0.1367371430
0.1438294877
0.1515083214
0.1597962611
0.1687127588
0.1782741016
0.1884941097
0.1995667428
0.2115547230
0.2243387106
0.2378015229
0.2518281352
0.2663056798
0.2811234468
0.2961728838
0.3113475956
0.3265433446
0.3416580509
0.3565917917
0.3712468020
0.3855274741
0.3993403578
0.4125941604
0.4251997467
0.4370701371
0.4481189801
0.4582577752
0.4673993465
0.4754584725
0.4823520576
0.4879991637
0.4923210102
0.4952409739
0.4966845891
0.4965795476
0.4948556987
0.4914449792
0.4862510920
0.4793508047
0.4709193683
0.4611252036
0.4501299001
0.4380882171
0.4251480829
0.4114505952
0.3971300210
0.3823137965
0.3671225273
0.3516699882
0.3360631247
0.3204038924
0.3047929119
0.2893249941
0.2740881190
0.2591634362
0.2446252641
0.2305410909
0.2169715738
0.2039705394
0.1915849836
0.1798550714
0.1688141373
0.1584886851
0.1488983877
0.1400560875
0.1319687687
0.1246411356
0.1180384958
0.1121180778
0.1068387710
0.1021611256
0.0980473523
0.0944613230
0.0913685701
0.0887362862
0.0865317473
0.0847188962
0.0832623697
0.0821285286
0.0812854070
0.0807026998
0.0803517628
0.0802056124
0.0802389258
0.0804280411
0.0807509570
0.0811873333
0.0817184902
0.0823274088
0.0829987312
0.0837187600
0.0844754586
0.0852584514
0.0860590234
0.0868701204
0.0876863490
0.0885039765
0.0893209312
0.0901357487
0.0909411684
0.0917302971
0.0924994850
0.0932460438
0.0939677061
0.0946626251
0.0953293746
0.0959669492
0.0965747643
0.0971526559
0.0977008806
0.0982201159
0.0987114598
0.0991764313
0.0996169697
0.1000354353
0.1004346091
0.1008176926
0.1011883081
0.1015504987
0.1019087281
0.1022678806
0.1026332615
0.1030105964
0.1034060321
0.1038261356
0.1042780200
0.1047696652
0.1053070081
0.1058927581
0.1065752804
0.1074122482
0.1084632482
0.1097897816
0.1114552633
0.1135250221
0.1160663011
0.1191482570
0.1228419609
0.1272203974
0.1323584656
0.1383329781
0.1452226619
0.1531081577
0.1620720202
0.1722033411
0.1836580958
0.1963187098
0.2099638633
0.2243675429
0.2392990417
0.2545223176
0.2697942067
0.2848662766
0.2994854017
0.3133937624
0.3263288458
0.3380234455
0.3482056612
0.3565988993
0.3629218725
0.3668885999
0.3682084072
0.3666288596
0.3623147820
0.3555930778
0.3467811550
0.3361869232
0.3241087944
0.3108356822
0.2966470024
0.2818126725
0.2665931122
0.2512392430
0.2359924884
0.2210847740
0.2067391851
0.1931719548
0.1805904687
0.1691925421
0.1595284172
0.1519431145
0.1458253525
0.1406054238
0.1357712219
0.1308682414
0.1254995778
0.1193259277
0.1120655885
0.1034944590
0.0934460385
0.0818114276
0.0685393280
0.0536360422
0.0371654737
0.0192491271
0.0000661079
-0.0201468772
-0.0388369444
-0.0474396991
-0.0395866228
-0.0100902815
0.0451454844
0.1291270663
0.2438418407
0.3888656403
0.5539476507
0.7251997032
0.8868923387
1.0214548073
1.1094750686
1.1396323351
1.0691797183
0.9148211193
0.7474925082
0.5612831645
0.3817091146
0.2266483171
0.1053999859
0.0226035026
-0.0216888801
-0.0320120385
-0.0170773069
0.0141046977
0.0522323680
0.0899299997
0.1222153335
0.1465009660
0.1625930572
0.1726694484
0.1791427533
0.1830876882
0.1855509499
0.1873554071
0.1891001010
0.1911602449
0.1936872245
0.1966085974
0.1998665492
0.2036148397
0.2079061270
0.2127884793
0.2183054540
0.2244960983
0.2313949487
0.2390320314
0.2474328618
0.2566338318
0.2666863626
0.2775522844
0.2891776536
0.3014994496
0.3144442031
0.3279292069
0.3418630364
0.3561455499
0.3706678881
0.3853124747
0.3999530160
0.4144545009
0.4286732012
0.4424566714
0.4556437485
0.4680645525
0.4795404859
0.4898842341
0.4988997650
0.5063823294
0.5121420997
0.5161158541
0.5182948535
0.5186835443
0.5172995259
0.5141735508
0.5093495245
0.5028845055
0.4948489347
0.4853275777
0.4744187372
0.4622339591
0.4488979890
0.4345487258
0.4193372217
0.4034276818
0.3869974643
0.3702370805
0.3533501946
0.3365536241
0.3200773393
0.3041292298
0.2887346821
0.2739483789
0.2598282864
0.2464235878
0.2337746837
0.2219131918
0.2108619471
0.2006350018
0.1912376250
0.1826663033
0.1749087405
0.1679437835
0.1617410948
0.1562614182
0.1514567145
0.1472701619
0.1436361555
0.1404803078
0.1377194484
0.1353041938
0.1332312837
0.1314631432
0.1299642970
0.1287016560
0.1276445173
0.1267645641
0.1260358657
0.1254348777
0.1249404416
0.1245337852
0.1241985225
0.1239206535
0.1236885644
0.1234930276
0.1233272015
0.1231866308
0.1230692693
0.1229755904
0.1229133338
0.1228901347
0.1228956698
0.1229201350
0.1229549182
0.1229925995
0.1230269506
0.1230529354
0.1230667099
0.1230656217
0.1230482106
0.1230142083
0.1229645386
0.1229013170
0.1228278513
0.1227486410
0.1226693776
0.1225969446
0.1225394176
0.1225060641
0.1225073433
0.1225549067
0.1226615977
0.1228413805
0.1231089740
0.1234801233
0.1239717646
0.1246020266
0.1253806081
0.1262666252
0.1274070561
0.1289773523
0.1311335820
0.1340124302
0.1377311989
0.1423878068
0.1480607894
0.1548092992
0.1626731053
0.1716725937
0.1818087672
0.1930632457
0.2053982654
0.2187566799
0.2331116883
0.2484199800
0.2640614301
0.2794123317
0.2939191160
0.3070992809
0.3185407455
0.3279015495
0.3349098233
0.3393636712
0.3411311683
0.3401503604
0.3364292640
0.3300458662
0.3211481249
0.3099539685
0.2967433411
0.2819461105
0.2661177641
0.2497616032
0.2333218085
0.2171834398
0.2016724365
0.1870556174
0.1735406802
0.1612762025
0.1503516407
0.1407973309
0.1325844884
0.1256250995
0.1197712742
0.1148502626
0.1106980266
0.1067632999
0.1023374486
0.0965916291
0.0885767879
0.0772236617
0.0613427776
0.0399564712
0.0152844744
-0.0082812827
-0.0255242771
-0.0304082346
-0.0160771299
0.0251027291
0.0985524243
0.2072666662
0.3489941615
0.5144233572
0.6871824402
0.8438393376
0.9536860198
0.9907093361
0.9551769719
0.8554879762
0.7054707661
0.5243842441
0.3369178023
0.1721515891
0.0432655335
-0.0478787892
-0.1012510906
-0.1199647252
-0.1102766902
-0.0815875766
-0.0446544998
-0.0066084276
0.0276387453
0.0550127273
0.0742768295
0.0860319657
0.0927166526
0.0972739028
0.1003115991
0.1024896369
0.1043373374
0.1062443667
0.1084607358
0.1110975436
0.1141321276
0.1175110695
0.1213558661
0.1257331420
0.1306995502
0.1363037586
0.1425864507
0.1495803250
0.1573100956
0.1657924916
0.1750362576
0.1850421532
0.1958029535
0.2073587181
0.2197956186
0.2329632653
0.2466993094
0.2608450642
0.2752455044
0.2897492667
0.3042086497
0.3184796136
0.3324217804
0.3458984341
0.3587758056
0.3709177331
0.3821886591
0.3924563529
0.4015918606
0.4094698659
0.4159687145
0.4209704140
0.4243606336
0.4260287044
0.4258676192
0.4237569886
0.4196722074
0.4137759767
0.4062359273
0.3972162192
0.3868775414
0.3753771124
0.3628686796
0.3495025199
0.3354254391
0.3207807724
0.3057083840
0.2903446674
0.2748225454
0.2592718044
0.2438217898
0.2285999881
0.2137304296
0.1993336743
0.1855268109
0.1724234577
0.1601337617
0.1487509522
0.1382708639
0.1286541829
0.1198620554
0.1118556397
0.1045961063
0.0980446376
0.0921624281
0.0869106848
0.0822506263
0.0781434837
0.0745504999
0.0714329302
0.0687520417
0.0664691139
0.0645454383
0.0629423184
0.0616211255
0.0605437827
0.0596725338
0.0589699862
0.0583992926
0.0579236633
0.0575125480
0.0571710368
0.0568952624
0.0566789538
0.0565163839
0.0564023699
0.0563322729
0.0563019981
0.0563079946
0.0563472560
0.0564173195
0.0565162665
0.0566427227
0.0567958576
0.0569753847
0.0571815619
0.0574151909
0.0576776175
0.0579707316
0.0582966955
0.0586553907
0.0590455681
0.0594665005
0.0599180049
0.0604099760
0.0609496367
0.0615177822
0.0620996705
0.0626857820
0.0632718186
0.0638587047
0.0644525863
0.0650648315
0.0657120305
0.0664159953
0.0672037601
0.0681075807
0.0691649354
0.0704185242
0.0719162690
0.0737113139
0.0758451649
0.0782918367
0.0812497228
0.0849302862
0.0895096885
0.0951278217
0.1018864650
0.1098490260
0.1190409754
0.1294499021
0.1410255133
0.1536796345
0.1672862095
0.1816813001
0.1966630868
0.2120058287
0.2274100868
0.2422978126
0.2561226189
0.2684115464
0.2787650640
0.2868570685
0.2924348849
0.2953192661
0.2954043929
0.2926578744
0.2871207476
0.2788937468
0.2681930785
0.2555276626
0.2414039575
0.2262901375
0.2106160970
0.1947734500
0.1791155301
0.1639573909
0.1495758058
0.1362092677
0.1240579894
0.1133466833
0.1044226884
0.0970166835
0.0907623693
0.0852854405
0.0802035858
0.0751264881
0.0696558245
0.0633852658
0.0559004772
0.0467791178
0.0355908407
0.0218972933
0.0052521168
-0.0147991528
-0.0390456542
-0.0641196877
-0.0763750285
-0.0646809037
-0.0218281614
0.0554706751
0.1665814069
0.3069481600
0.4680933849
0.6376178567
0.7970197280
0.9149360029
0.9691488641
0.9514188087
0.8671848718
0.7316228454
0.5611104827
0.3760504599
0.1942599484
0.0307876162
-0.1039125686
-0.2064476987
-0.2760515647
-0.3139585409
-0.3234035363
-0.3096213600
-0.2798469030
-0.2426580874
-0.2037971948
-0.1668811643
-0.1345274041
-0.1083543221
-0.0889813266
-0.0760288259
-0.0681182286
-0.0628719433
-0.0584318838
-0.0547926737
-0.0516162334
-0.0486175688
-0.0455647990
-0.0422791564
-0.0386349866
-0.0345597487
-0.0300340147
-0.0250914702
-0.0197614234
-0.0139672247
-0.0076563362
-0.0007847077
0.0066844796
0.0147806681
0.0235253697
0.0329320003
0.0430060639
0.0537451953
0.0651391608
0.0771698573
0.0898113130
0.1030296870
0.1167832695
0.1310224820
0.1456898765
0.1607201387
0.1761443942
0.1919104121
0.2078323766
0.2237344135
0.2394505902
0.2548249155
0.2697113400
0.2839737558
0.2974859966
0.3101318375
0.3218049089
0.3324073679
0.3418501598
0.3500541373
0.3569500951
0.3624787692
0.3665908372
0.3692469185
0.3704175738
0.3700833055
0.3682345575
0.3648717155
0.3600051064
0.3536549991
0.3458150504
0.3365613249
0.3260536114
0.3144459448
0.3018865261
0.2885177228
0.2744760691
0.2598922653
0.2448911784
0.2295918417
0.2141074551
0.1985455027
0.1830097311
0.1675998551
0.1524098684
0.1375281409
0.1230372600
0.1090139794
0.0955292194
0.0826480665
0.0704297738
0.0589277610
0.0481907775
0.0382624715
0.0291255300
0.0207489335
0.0131019872
0.0061543205
-0.0001241129
-0.0057630345
-0.0107918415
-0.0152396068
-0.0191350786
-0.0225066809
-0.0253825131
-0.0277903503
-0.0297577762
-0.0313146331
-0.0324927774
-0.0333238260
-0.0338390711
-0.0340694805
-0.0340456976
-0.0337980414
-0.0333565063
-0.0327507623
-0.0320101552
-0.0311637059
-0.0302397144
-0.0292476922
-0.0281914304
-0.0270794959
-0.0259201444
-0.0247213207
-0.0234906588
-0.0222354814
-0.0209628004
-0.0196793167
-0.0183914201
-0.0171051897
-0.0158263932
-0.0145604027
-0.0133104807
-0.0120778627
-0.0108634696
-0.0096682347
-0.0084928803
-0.0073378177
-0.0062031474
-0.0050886588
-0.0039938303
-0.0029178293
-0.0018595124
-0.0008174250
0.0002101985
0.0012254344
0.0022306704
0.0032291831
0.0042416680
0.0052654419
0.0062876648
0.0072997220
0.0082972244
0.0092800087
0.0102521369
0.0112218967
0.0122018148
0.0132089511
0.0142649003
0.0153954965
0.0166307995
0.0180050943
0.0195568918
0.0213289284
0.0233681660
0.0257257923
0.0284572204
0.0316040690
0.0351461826
0.0392452106
0.0440693589
0.0497575854
0.0564196001
0.0641358651
0.0729575948
0.0829067554
0.0939760655
0.1061289957
0.1192997685
0.1333933590
0.1482854939
0.1638225676
0.1798195611
0.1960599132
0.2123085771
0.2283210643
0.2436706385
0.2579472506
0.2707936321
0.2819052948
0.2910305307
0.2979704126
0.3025787935
0.3047623069
0.3044803666
0.3017451671
0.2966216829
0.2892201084
0.2796785509
0.2683519705
0.2556186335
0.2418332131
0.2273267895
0.2124068498
0.1973572884
0.1824384062
0.1678870019
0.1539188348
0.1407289223
0.1284888385
0.1173269658
0.1070436221
0.0977547719
0.0896456731
0.0828011817
0.0772057518
0.0727434351
0.0691978819
0.0662523401
0.0634896558
0.0603922731
0.0563422341
0.0506211789
0.0424103458
0.0307905709
0.0113763798
-0.0190330000
-0.0527972773
-0.0829752465
-0.1036526790
-0.1099423235
-0.0979839670
-0.0649463010
-0.0090272607
0.0705480857
0.1735274780
0.2986315728
0.4435540487
0.6049616073
0.7766026515
0.9336725387
1.0509297010
1.1119710844
1.1086569372
1.0411108108
0.9177195589
0.7551332219
0.5731190120
0.3877869677
0.2136401541
0.0615207239
-0.0613900824
-0.1515719370
-0.2091654244
-0.2372210676
-0.2384228336
-0.2201531052
-0.1895172661
-0.1524813321
-0.1138728244
-0.0773808276
-0.0455559894
-0.0198105208
-0.0004181960
0.0137044880
0.0241550131
0.0317376836
0.0371591128
0.0410469535
0.0439498983
0.0463376797
0.0486010700
0.0510518811
0.0539229649
0.0573682130
0.0614625567
0.0662019672
0.0715034555
0.0772050724
0.0830970448
0.0893634029
0.0961331752
0.1034443171
0.1113293152
0.1198135929
0.1289154698
0.1386461303
0.1490095721
0.1600026062
0.1716148564
0.1838287592
0.1966195644
0.2099553345
0.2237969449
0.2380980841
0.2528052533
0.2678643868
0.2832933177
0.2989863598
0.3147986442
0.3305916833
0.3462333706
0.3615979809
0.3765661702
0.3910249757
0.4048678157
0.4179944101
0.4303072981
0.4417104952
0.4521140407
0.4614343549
0.4695942397
0.4765228778
0.4821558334
0.4864350520
0.4893088600
0.4907319652
0.4906654568
0.4890768049
0.4858587882
0.4809814911
0.4745833080
0.4667990657
0.4577592900
0.4475902064
0.4364137390
0.4243475115
0.4115048467
0.3979947666
0.3839219923
0.3693869443
0.3544858223
0.3393145898
0.3239708117
0.3085482163
0.2931362302
0.2778199786
0.2626802860
0.2477936761
0.2332323717
0.2190642948
0.2053530667
0.1921580080
0.1795341381
0.1675321760
0.1561985398
0.1455753466
0.1357004130
0.1265936687
0.1182288040
0.1105717713
0.1035895125
0.0972499591
0.0915220321
0.0863756421
0.0817816890
0.0777120184
0.0741369005
0.0710236671
0.0683403069
0.0660557981
0.0641401083
0.0625641950
0.0613000049
0.0603204743
0.0595995291
0.0591120847
0.0588340461
0.0587423075
0.0588147531
0.0590302562
0.0593686800
0.0598108770
0.0603386892
0.0609349482
0.0615834752
0.0622691062
0.0629837010
0.0637238712
0.0644842333
0.0652595781
0.0660448863
0.0668363734
0.0676321432
0.0684306293
0.0692304420
0.0700303672
0.0708293655
0.0716265714
0.0724212937
0.0732130155
0.0740013941
0.0747862609
0.0755676217
0.0763456562
0.0771207188
0.0778933376
0.0786642152
0.0794342284
0.0802044281
0.0809760396
0.0817504622
0.0825292696
0.0833142095
0.0841072040
0.0849103495
0.0857259163
0.0865735883
0.0874579821
0.0883650606
0.0892857887
0.0902161333
0.0911570635
0.0921145501
0.0930995662
0.0941280868
0.0952210890
0.0964045517
0.0977094561
0.0991717852
0.1008325243
0.1027376603
0.1049381826
0.1074900822
0.1104543523
0.1138969882
0.1178889872
0.1224844641
0.1277022755
0.1336770683
0.1405267323
0.1483380527
0.1571678117
0.1670436801
0.1779624196
0.1898896038
0.2027596055
0.2164756763
0.2309099513
0.2459034491
0.2612660722
0.2767766062
0.2921827205
0.3072009682
0.3215704679
0.3350453887
0.3472610004
0.3579000397
0.3666985493
0.3734458779
0.3779846804
0.3802109176
0.3800738565
0.3775760701
0.3727734374
0.3657751437
0.3567436680
0.3458934601
0.3334897353
0.3198507309
0.3053224998
0.2901338706
0.2745935698
0.2590010910
0.2436218077
0.2286869730
0.2143937194
0.2009050592
0.1883498844
0.1768229667
0.1663849571
0.1570623865
0.1488476655
0.1416990841
0.1355408122
0.1302629647
0.1257910972
0.1219853736
0.1185610391
0.1151487817
0.1112947322
0.1064604723
0.1000241375
0.0912815389
0.0794442000
0.0636392255
0.0431675254
0.0194038434
-0.0049557682
-0.0267094081
-0.0421521387
-0.0470759863
-0.0367699409
-0.0060199563
0.0494409082
0.1323686906
0.2447601251
0.3846147896
0.5458849950
0.7184757846
0.8882449346
1.0370029536
1.1460048568
1.2002496085
1.1874832019
1.1060603777
0.9653093152
0.7880927867
0.6010354585
0.4253792120
0.2767487321
0.1640203857
0.0886213833
0.0488970595
0.0406209144
0.0569946139
0.0886724991
0.1262844741
0.1634390290
0.1956481337
0.2204351847
0.2373350054
0.2478938459
0.2545927995
0.2586437282
0.2611627490
0.2630038312
0.2647573344
0.2667500087
0.2690449941
0.2716300691
0.2746259057
0.2780825534
0.2820473864
0.2865646693
0.2916753341
0.2974168565
0.3038235011
0.3109263503
0.3187533043
0.3273765148
0.3368539167
0.3471386974
0.3581764707
0.3699062969
0.3822606828
0.3951655820
0.4085403944
0.4222979668
0.4363445923
0.4505800106
0.4648974082
0.4791834180
0.4933181194
0.5071750387
0.5206211484
0.5335168676
0.5457159875
0.5570655696
0.5674060961
0.5765714959
0.5843891446
0.5906798641
0.5952578619
0.5979145302
0.5986298441
0.5974875106
0.5945748538
0.5899828154
0.5838059545
0.5761424476
0.5670940885
0.5567662887
0.5452680768
0.5327120990
0.5192146190
0.5048955176
0.4898782934
0.4742900621
0.4582615570
0.4419271288
0.4254247453
0.4088959106
0.3924855418
0.3763421423
0.3606179423
0.3454690383
0.3310551793
0.3175311692
0.3049014458
0.2931264879
0.2821833542
0.2720479061
0.2626948076
0.2540975251
0.2462283280
0.2390582878
0.2325572789
0.2266939783
0.2214358655
0.2167492225
0.2125991341
0.2089494876
0.2057629728
0.2030010823
0.2006241111
0.1985911573
0.1968604151
0.1953896618
0.1941356064
0.1930537602
0.1920984371
0.1912275239
0.1904486299
0.1897591100
0.1891487973
0.1886082471
0.1881287369
0.1877022664
0.1873215572
0.1869800534
0.1866719209
0.1863920481
0.1861360452
0.1859002447
0.1856817014
0.1854781921
0.1852882156
0.1851109931
0.1849464680
0.1847953055
0.1846588925
0.1845387275
0.1844353083
0.1843495541
0.1842886212
0.1842498952
0.1842225006
0.1841978567
0.1841696775
0.1841339712
0.1840890411
0.1840354846
0.1839761941
0.1839163563
0.1838634526
0.1838272592
0.1838198465
0.1838555798
0.1839511188
0.1841254181
0.1843997265
0.1847975876
0.1852774578
0.1857630605
0.1864530187
0.1875391301
0.1891908015
0.1915570439
0.1947640343
0.1989145581
0.2040880088
0.2103403883
0.2177043067
0.2261889823
0.2357802417
0.2464405198
0.2581088597
0.2707009129
0.2841089389
0.2982018056
0.3128350260
0.3277859323
0.3424798956
0.3563533600
0.3689166122
0.3797537820
0.3885228417
0.3949556065
0.3988577342
0.4001087254
0.3986619233
0.3945432525
0.3878484785
0.3787464174
0.3674789975
0.3543011983
0.3396678857
0.3240928284
0.3080365239
0.2919061989
0.2760558089
0.2607860385
0.2463443010
0.2329247387
0.2206682232
0.2096623545
0.1999414620
0.1914866039
0.1842255671
0.1780903932
0.1729808715
0.1685669336
0.1644106204
0.1599696171
0.1545972531
0.1475425022
0.1379511596
0.1248686305
0.1072367979
0.0841529900
0.0582746508
0.0349828835
0.0199206291
0.0189407579
0.0381060694
0.0836892926
0.1618924606
0.2747732197
0.4183324940
0.5829472372
0.7532948379
0.9083531198
1.0214003414
1.0673475395
1.0394099391
0.9414081856
0.7876993578
0.6031797908
0.4187388907
0.2548885472
0.1247143460
0.0347567948
-0.0150044477
-0.0290249493
-0.0155026143
0.0140537512
0.0503287905
0.0862770851
0.1171231551
0.1403614591
0.1558540764
0.1655872233
0.1713065151
0.1744376698
0.1761493982
0.1773534036
0.1787043816
0.1806000207
0.1831810018
0.1863309984
0.1897438250
0.1936083511
0.1980613593
0.2031544655
0.2089319633
0.2154308235
0.2226808209
0.2307048849
0.2395187361
0.2491307727
0.2595548851
0.2708547384
0.2829532703
0.2957417974
0.3091066233
0.3229290385
0.3370853202
0.3514467326
0.3658795268
0.3802449406
0.3943991989
0.4081935133
0.4214740824
0.4340820915
0.4458537129
0.4566201057
0.4662074161
0.4744367768
0.4811243077
0.4860811153
0.4891272701
0.4902204512
0.4894031711
0.4867299685
0.4822665158
0.4760893000
0.4682858629
0.4589549434
0.4482064779
0.4361616003
0.4229526421
0.4087231320
0.3936277967
0.3778325598
0.3615145429
0.3448620648
0.3280746419
0.3113629880
0.2949490146
0.2790634023
0.2638170660
0.2492465205
0.2354053726
0.2223384613
0.2100818583
0.1986628676
0.1880996775
0.1784002191
0.1695632571
0.1615787890
0.1544280445
0.1480834860
0.1425088082
0.1376589381
0.1334800356
0.1299094927
0.1268759339
0.1242992163
0.1220904374
0.1202060098
0.1186361782
0.1173415906
0.1162854538
0.1154335342
0.1147541573
0.1142182080
0.1137991303
0.1134729277
0.1132181627
0.1130159572
0.1128499925
0.1127070255
0.1125787212
0.1124599704
0.1123482727
0.1122440722
0.1121505764
0.1120815211
0.1120393533
0.1120160011
0.1120046572
0.1119997791
0.1119970887
0.1119935726
0.1119874819
0.1119783324
0.1119669045
0.1119552432
0.1119466582
0.1119457235
0.1119582781
0.1119914253
0.1120535332
0.1121542344
0.1123044262
0.1125162703
0.1128022265
0.1131713520
0.1136325620
0.1141960359
0.1148732179
0.1156768167
0.1166208056
0.1177204225
0.1189383945
0.1203077321
0.1220212286
0.1242528027
0.1271550159
0.1308590715
0.1354748155
0.1410907362
0.1477739639
0.1555702717
0.1645040747
0.1745784305
0.1857750388
0.1980542420
0.2113550244
0.2255985912
0.2407267730
0.2562165718
0.2714399648
0.2858378612
0.2989180782
0.3102550734
0.3194900669
0.3263312118
0.3305535968
0.3319992462
0.3305771199
0.3262631133
0.3191000573
0.3091860414
0.2968097899
0.2825784847
0.2670722145
0.2508145161
0.2342723745
0.2178562227
0.2019199421
0.1867608621
0.1726197601
0.1596808619
0.1480718412
0.1378638201
0.1290705354
0.1215690167
0.1152729528
0.1101333909
0.1058849365
0.1020438531
0.0979080621
0.0925571424
0.0849226789
0.0738182251
0.0576466930
0.0364642174
0.0122479696
-0.0111038426
-0.0277719746
-0.0300161452
-0.0115480381
0.0360102253
0.1208306253
0.2437667704
0.3983422744
0.5707507559
0.7398558385
0.8772965527
0.9546302678
0.9566804593
0.8843826032
0.7531918569
0.5830715257
0.3971730085
0.2164700272
0.0583996349
-0.0684732947
-0.1604094028
-0.2167227308
-0.2397807205
-0.2350042140
-0.2107882367
-0.1757882868
-0.1368431362
-0.0993260437
-0.0669793669
-0.0419145613
-0.0246121809
-0.0139218780
-0.0070756709
-0.0019387121
0.0018435626
0.0048443489
0.0075324961
0.0102720794
0.0133201920
0.0168285766
0.0208446276
0.0253113930
0.0301629028
0.0355108234
0.0414102564
0.0479059701
0.0550348884
0.0628260913
0.0713008145
0.0804724497
0.0903465441
0.1009208010
0.1121850795
0.1241213944
0.1367039164
0.1498989721
0.1636703117
0.1781405134
0.1932290569
0.2087383425
0.2244793126
0.2402714514
0.2559433884
0.2713362534
0.2863013148
0.3006983766
0.3143955766
0.3272694062
0.3392048917
0.3500956016
0.3598436460
0.3683596775
0.3755628903
0.3813810209
0.3857503474
0.3886156902
0.3899304117
0.3896564160
0.3877641495
0.3842326004
0.3790492989
0.3721861462
0.3636979474
0.3537758350
0.3426068180
0.3303705535
0.3172393462
0.3033775244
0.2889376974
0.2740632585
0.2588902420
0.2435473297
0.2281558517
0.2128297856
0.1976757572
0.1827930398
0.1682735548
0.1542018714
0.1406552066
0.1277034255
0.1154090408
0.1038272131
0.0930057510
0.0829851107
0.0738071958
0.0654781775
0.0579450501
0.0511546216
0.0450552264
0.0395967246
0.0347305025
0.0304094723
0.0265885942
0.0232282453
0.0202920858
0.0177453154
0.0155548074
0.0136891260
0.0121183705
0.0108141661
0.0097496639
0.0088995412
0.0082400012
0.0077487731
0.0074051120
0.0071897992
0.0070851420
0.0070749735
0.0071446530
0.0072810658
0.0074726230
0.0077092619
0.0079824458
0.0082883488
0.0086349683
0.0090217853
0.0094475238
0.0099110056
0.0104093998
0.0109392688
0.0114975185
0.0120814047
0.0126885324
0.0133168561
0.0139646801
0.0146306580
0.0153137930
0.0160134376
0.0167292943
0.0174614147
0.0182102000
0.0189764011
0.0197611183
0.0205658014
0.0213922496
0.0222426120
0.0231193869
0.0240254222
0.0249639153
0.0259384131
0.0269528123
0.0280113587
0.0291184860
0.0302775116
0.0314730172
0.0327275711
0.0340946431
0.0356303418
0.0373933498
0.0394449187
0.0418488692
0.0446715908
0.0479820421
0.0518517507
0.0563548130
0.0615678945
0.0675702298
0.0744436221
0.0822724441
0.0911436370
0.1011467112
0.1123989803
0.1251400078
0.1391176631
0.1539773283
0.1693760154
0.1849823676
0.2004770962
0.2155565193
0.2299307057
0.2433213748
0.2554618763
0.2660971906
0.2749839288
0.2818903323
0.2865962734
0.2888932548
0.2885844099
0.2854845027
0.2794366466
0.2706556929
0.2596558124
0.2469245002
0.2329127470
0.2180350399
0.2026693619
0.1871571922
0.1718035063
0.1568767753
0.1426089669
0.1291955446
0.1167954680
0.1055307902
0.0954831436
0.0866954516
0.0791741062
0.0728966017
0.0680943162
0.0644606873
0.0614037000
0.0583452010
0.0547208987
0.0499803634
0.0435870268
0.0350181828
0.0237649865
0.0093324552
-0.0087605324
-0.0311457661
-0.0599460061
-0.0858119665
-0.0978141059
-0.0877153379
-0.0499710306
0.0182709930
0.1171704553
0.2441946239
0.3941185063
0.5590266867
0.7283109013
0.8822042159
0.9921171051
1.0399035486
1.0182928887
0.9308898310
0.7916517206
0.6184966305
0.4327984664
0.2528460631
0.0923716233
-0.0394492822
-0.1373774051
-0.2007218872
-0.2333088236
-0.2396901447
-0.2250199250
-0.1950543825
-0.1561518792
-0.1152729207
-0.0791474646
-0.0495138522
-0.0261142925
-0.0084799359
0.0040860319
0.0125085219
0.0179407626
0.0217644977
0.0252271825
0.0284923139
0.0317109501
0.0350229216
0.0385465370
0.0423785827
0.0465943235
0.0512475019
0.0563703388
0.0619735327
0.0680492667
0.0746212016
0.0817433302
0.0894613147
0.0978112170
0.1068194983
0.1165030191
0.1268690396
0.1379152191
0.1496296163
0.1619906857
0.1749672337
0.1885184353
0.2025938642
0.2171334936
0.2320676959
0.2473172430
0.2627933063
0.2783974565
0.2940216637
0.3095533788
0.3249534997
0.3400791106
0.3547522645
0.3688084270
0.3820964768
0.3944787054
0.4058308169
0.4160419285
0.4250145703
0.4326646851
0.4389216285
0.4437281690
0.4470404882
0.4488281801
0.4490742068
0.4477743582
0.4449374287
0.4405856174
0.4347545194
0.4274881067
0.4187540648
0.4086651128
0.3973910486
0.3850946349
0.3719315992
0.3580506336
0.3435933947
0.3286945040
0.3134815475
0.2980750759
0.2825886046
0.2671286137
0.2517945478
0.2366788164
0.2218667934
0.2074368176
0.1934601924
0.1800011857
0.1671170304
0.1548580286
0.1432689154
0.1323884708
0.1222484643
0.1128780686
0.1043236906
0.0965562841
0.0895310273
0.0832045444
0.0775349055
0.0724816267
0.0680056701
0.0640694435
0.0606368008
0.0576730419
0.0551449124
0.0530206041
0.0512697545
0.0498634472
0.0487742116
0.0479760233
0.0474443034
0.0471559193
0.0470891842
0.0472238573
0.0475410062
0.0480210652
0.0486443022
0.0493923886
0.0502483324
0.0511962078
0.0522214520
0.0533109483
0.0544530260
0.0556374603
0.0568554721
0.0580997287
0.0593643428
0.0606448734
0.0619442501
0.0632729598
0.0646209826
0.0659778156
0.0673337267
0.0686797541
0.0700077068
0.0713101644
0.0725804771
0.0738127659
0.0750019222
0.0761437512
0.0772371754
0.0782838062
0.0792860819
0.0802472115
0.0811711745
0.0820627211
0.0829273720
0.0837714188
0.0846019235
0.0854267189
0.0862544082
0.0870943655
0.0879567353
0.0888524329
0.0897931441
0.0907913256
0.0918602042
0.0930137780
0.0942668152
0.0956348548
0.0971342065
0.0987813630
0.1004876754
0.1023093826
0.1044198168
0.1069721379
0.1100996736
0.1139179627
0.1185249286
0.1240012377
0.1304099654
0.1377964671
0.1461883789
0.1555956166
0.1660103767
0.1774071357
0.1897426504
0.2029559580
0.2169683757
0.2316835013
0.2469872125
0.2627488232
0.2788296373
0.2948192549
0.3102499486
0.3247046141
0.3378167711
0.3492705629
0.3588007563
0.3661928574
0.3712852422
0.3739689495
0.3741857154
0.3719278999
0.3672384866
0.3602110826
0.3509899187
0.3397257681
0.3267412580
0.3124692871
0.2973078239
0.2816197848
0.2657330337
0.2499403821
0.2344995893
0.2196333619
0.2055293544
0.1923401688
0.1801833546
0.1691414092
0.1592617774
0.1505568517
0.1429189689
0.1362382481
0.1305816714
0.1258927545
0.1219844438
0.1185403030
0.1151145099
0.1111316033
0.1058866811
0.0985455089
0.0881445194
0.0735894923
0.0542921439
0.0315473910
0.0076721312
-0.0141818573
-0.0300279159
-0.0350445053
-0.0235752058
0.0102794756
0.0700063126
0.1603687038
0.2822242600
0.4316750331
0.6000675158
0.7739926420
0.9352857864
1.0630100063
1.1387053117
1.1468962766
1.0834411960
0.9559757493
0.7849184348
0.5984960565
0.4201335180
0.2667599094
0.1488021971
0.0693063475
0.0266712959
0.0165689215
0.0319604980
0.0633302429
0.1016015100
0.1394373048
0.1718946930
0.1965911605
0.2136975739
0.2248900631
0.2318654501
0.2361883980
0.2390913745
0.2414746516
0.2439062553
0.2466207075
0.2495623292
0.2528468127
0.2565640141
0.2607625887
0.2654882246
0.2707835412
0.2766880893
0.2832383510
0.2904677393
0.2984065986
0.3071065876
0.3166050038
0.3268800104
0.3378996258
0.3496221296
0.3619960632
0.3749602295
0.3884436930
0.4023657795
0.4166360766
0.4311544333
0.4458109603
0.4604860297
0.4750503456
0.4893668697
0.5032910588
0.5166687488
0.5293360374
0.5411192836
0.5518351081
0.5612903932
0.5692822825
0.5756065052
0.5801654206
0.5829493199
0.5839622882
0.5832205406
0.5807524229
0.5765984108
0.5708111108
0.5634552595
0.5546077236
0.5443575006
0.5328057180
0.5200656337
0.5062626360
0.4915342434
0.4760301048
0.4599119576
0.4433523504
0.4265344071
0.4096532923
0.3929162780
0.3765425410
0.3607559665
0.3456141339
0.3311346010
0.3173604572
0.3043276870
0.2920651710
0.2805946848
0.2699308997
0.2600813826
0.2510465957
0.2428198969
0.2353875394
0.2287286720
0.2228153392
0.2176124806
0.2130779316
0.2091624231
0.2058095814
0.2029559282
0.2005308950
0.1984573015
0.1966614997
0.1951435247
0.1938823032
0.1928484518
0.1920144534
0.1913546577
0.1908452807
0.1904644055
0.1901919815
0.1900098246
0.1899016177
0.1898529100
0.1898511174
0.1898855226
0.1899472745
0.1900293890
0.1901267485
0.1902361019
0.1903560648
0.1904871195
0.1906316148
0.1907926894
0.1909639439
0.1911419670
0.1913247824
0.1915098712
0.1916949437
0.1918780086
0.1920575236
0.1922323463
0.1924016220
0.1925647813
0.1927215405
0.1928719012
0.1930161505
0.1931548609
0.1932888905
0.1934193828
0.1935477667
0.1936787499
0.1938324126
0.1940083555
0.1942107249
0.1944537764
0.1947618747
0.1951694937
0.1957212164
0.1964717351
0.1974858761
0.1988396956
0.2006209054
0.2029274398
0.2058673421
0.2095408586
0.2139901619
0.2194001108
0.2259317589
0.2336916281
0.2427317080
0.2530494561
0.2645877977
0.2772351264
0.2908253032
0.3051376573
0.3198969858
0.3347735537
0.3493830937
0.3633099367
0.3761933534
0.3875420337
0.3969212053
0.4039845988
0.4084744484
0.4102214693
0.4091437495
0.4052462350
0.3986222455
0.3894536002
0.3780105583
0.3646518275
0.3498246168
0.3340646387
0.3179336914
0.3017307643
0.2858080011
0.2704837650
0.2560198356
0.2426214086
0.2304370964
0.2195589274
0.2100223464
0.2018062148
0.1948328101
0.1889678263
0.1840203736
0.1797429785
0.1761196765
0.1724457244
0.1670943776
0.1588456170
0.1469058618
0.1309068386
0.1109054765
0.0873838690
0.0620650407
0.0415034597
0.0331404615
0.0436386657
0.0788819762
0.1439755811
0.2432748682
0.3796086566
0.5414323421
0.7110213474
0.8689093106
0.9938880851
1.0630077394
1.0547308798
0.9673230456
0.8139734771
0.6294457555
0.4452149085
0.2832530105
0.1578711557
0.0750087168
0.0320747322
0.0233219480
0.0409098150
0.0749044991
0.1134660922
0.1481684944
0.1760050545
0.1957477018
0.2078685233
0.2145397641
0.2185781423
0.2210890060
0.2229172976
0.2246695261
0.2267124002
0.2291728283
0.2320127016
0.2353334028
0.2392008251
0.2436695835
0.2487893374
0.2546047902
0.2611556898
0.2684768413
0.2766006840
0.2856134038
0.2955173490
0.3062565587
0.3177646233
0.3299646841
0.3427694336
0.3560811154
0.3697915243
0.3837820062
0.3979234580
0.4120763279
0.4260906151
0.4398058699
0.4530511938
0.4656452393
0.4773962103
0.4881018615
0.4975494988
0.5055159793
0.5117677113
0.5160734351
0.5183754030
0.5187130028
0.5171375834
0.5137110036
0.5085045503
0.5016011094
0.4930954189
0.4830940278
0.4717152823
0.4590893777
0.4453583629
0.4306761397
0.4152084635
0.3991329427
0.3826390391
0.3659280677
0.3492131968
0.3327194478
0.3166836956
0.3013525960
0.2868214822
0.2730825628
0.2601584447
0.2480648670
0.2368107011
0.2263979506
0.2168217513
0.2080703874
0.2001270800
0.1929716224
0.1865773262
0.1809106355
0.1759311264
0.1715915074
0.1678376191
0.1646084345
0.1618360588
0.1594457294
0.1573558161
0.1555078864
0.1539095412
0.1525352231
0.1513596470
0.1503596899
0.1495143907
0.1488049506
0.1482147326
0.1477292620
0.1473362261
0.1470254743
0.1467890179
0.1466210306
0.1465178304
0.1464754818
0.1464873470
0.1465483664
0.1466556438
0.1468083619
0.1470022000
0.1472274737
0.1474750847
0.1477368926
0.1480057153
0.1482753289
0.1485404679
0.1487968248
0.1490410505
0.1492707540
0.1494845027
0.1496818221
0.1498631959
0.1500300663
0.1501848332
0.1503308554
0.1504724494
0.1506148901
0.1507644108
0.1509201547
0.1511039984
0.1513954989
0.1518812341
0.1526525322
0.1538054722
0.1554408841
0.1576643481
0.1605861955
0.1643215080
0.1689901180
0.1747166089
0.1816303143
0.1898653188
0.1996056540
0.2109253185
0.2235127825
0.2370268560
0.2511170037
0.2654233454
0.2795766556
0.2931983638
0.3059005546
0.3172859670
0.3269479955
0.3344706830
0.3394274185
0.3413792984
0.3398817391
0.3349157812
0.3269854184
0.3165986033
0.3042404659
0.2903733347
0.2754367367
0.2598473973
0.2439992406
0.2282633891
0.2129881638
0.1984990843
0.1850988686
0.1730674334
0.1625779275
0.1533240880
0.1454474277
0.1390117191
0.1338768807
0.1296989770
0.1259302188
0.1218189626
0.1164097122
0.1085434263
0.0968579446
0.0797821803
0.0566978520
0.0316196656
0.0102693260
-0.0008234662
0.0056789856
0.0379223742
0.1043735939
0.2088634946
0.3486704041
0.5132124022
0.6838002926
0.8336376028
0.9282832788
0.9435157793
0.8782683617
0.7483681994
0.5778342362
0.3915509717
0.2122493731
0.0579130008
-0.0630862212
-0.1473381528
-0.1948441316
-0.2090163867
-0.1966788599
-0.1676193229
-0.1305079494
-0.0920665176
-0.0572539767
-0.0291983062
-0.0091965161
0.0032853532
0.0106122311
0.0158292603
0.0194879589
0.0222119460
0.0245327806
0.0268620704
0.0294914720
0.0325926911
0.0362174821
0.0402976564
0.0448046214
0.0498552225
0.0555082660
0.0618139062
0.0688136431
0.0765392483
0.0850109671
0.0942399178
0.1042285667
0.1149707278
0.1264515632
0.1386475828
0.1515266443
0.1650524749
0.1793548282
0.1943531199
0.2098355397
0.2255995030
0.2414516511
0.2572078504
0.2726931933
0.2877419976
0.3021978067
0.3159133897
0.3287507413
0.3405810817
0.3512848568
0.3607517380
0.3688806224
0.3755796344
0.3807676127
0.3843768336
0.3863495391
0.3866371967
0.3852005314
0.3820095993
0.3770437037
0.3702770250
0.3617272321
0.3515907270
0.3400713844
0.3273648497
0.3136585396
0.2991316417
0.2839551144
0.2682916873
0.2522958608
0.2361139066
0.2198838670
0.2037355555
0.1877905565
0.1721622255
0.1569556888
0.1422678439
0.1281873583
0.1147935208
0.1021539418
0.0903273588
0.0793642803
0.0693104869
0.0602009671
0.0519902776
0.0446223782
0.0380429662
0.0321994761
0.0270410800
0.0225186869
0.0185849436
0.0151942340
0.0123026793
0.0098681383
0.0078502069
0.0062102185
0.0049112436
0.0039180904
0.0031973042
0.0027171677
0.0024477010
0.0023606614
0.0024295439
0.0026299948
0.0029407161
0.0033424082
0.0038175091
0.0043501219
0.0049257831
0.0055316866
0.0061575809
0.0068079657
0.0074815350
0.0081731042
0.0088779320
0.0095917201
0.0103106132
0.0110311993
0.0117505092
0.0124660170
0.0131756399
0.0138777380
0.0145711147
0.0152550163
0.0159291324
0.0165935954
0.0172489812
0.0178963083
0.0185370977
0.0191735124
0.0198082008
0.0204442540
0.0210852066
0.0217350359
0.0223981625
0.0230794501
0.0237842054
0.0245181783
0.0252875616
0.0260989915
0.0269449126
0.0277804848
0.0286865073
0.0297591834
0.0310917415
0.0327744357
0.0348945453
0.0375363749
0.0407812547
0.0447075401
0.0493906119
0.0549028764
0.0613137650
0.0686896073
0.0770933009
0.0865846666
0.0972205505
0.1090549091
0.1221543033
0.1366191806
0.1520491655
0.1679582323
0.1838931981
0.1994337226
0.2141923087
0.2278143020
0.2399778909
0.2503941067
0.2588068235
0.2649927585
0.2687614713
0.2699553647
0.2684496843
0.2641525185
0.2570043604
0.2472233450
0.2353533455
0.2219143271
0.2073825928
0.1921904270
0.1767264643
0.1613358046
0.1463200132
0.1319371210
0.1184016241
0.1058844842
0.0945131282
0.0843714485
0.0754998030
0.0678950149
0.0614500456
0.0560316497
0.0515473938
0.0477455849
0.0442118631
0.0403692016
0.0354779070
0.0286356190
0.0187773105
0.0046752874
-0.0150708069
-0.0393020324
-0.0637173564
-0.0834783818
-0.0932954184
-0.0874286606
-0.0596885855
-0.0034360151
0.0879187744
0.2137314357
0.3660872343
0.5329795983
0.6983371217
0.8420235638
0.9398378501
0.9667018279
0.9249536028
0.8220243961
0.6681622819
0.4789054484
0.2750821983
0.0828109481
-0.0753224879
-0.2037134167
-0.3007242195
-0.3657620706
-0.4001948902
-0.4073513440
-0.3925209470
-0.3629378667
-0.3260411783
-0.2867898740
-0.2489546503
-0.2153081461
-0.1876249429
-0.1666815645
-0.1522564773
-0.1431300900
-0.1370847538
-0.1318899536
-0.1275658333
-0.1237997777
-0.1202975510
-0.1168140768
-0.1131534378
-0.1091688760
-0.1047627926
-0.0998867481
-0.0945414621
-0.0887765221
-0.0825954551
-0.0759228780
-0.0687102547
-0.0609167989
-0.0525109675
-0.0434690917
-0.0337748327
-0.0234191556
-0.0124001230
-0.0007230034
0.0115996062
0.0245477787
0.0380942573
0.0522044555
0.0668364568
0.0819410150
0.0974615540
0.1133341680
0.1294876780
0.1459064434
0.1625088901
0.1791368019
0.1956392292
0.2118724880
0.2277001606
0.2429930950
0.2576294055
0.2714944722
0.2844812638
0.2964915754
0.3074349398
0.3172281557
0.3257952880
0.3330676675
0.3389838910
0.3434898213
0.3465385874
0.3480905840
0.3481134720
0.3465821783
0.3434672909
0.3387777961
0.3326163749
0.3250900152
0.3163057431
0.3063706232
0.2953917582
0.2834762890
0.2707313948
0.2572642931
0.2431822397
0.2285925285
0.2136024917
0.1983198061
0.1828537611
0.1673141894
0.1518109618
0.1364539851
0.1213531718
0.1066184519
0.0923597929
0.0786840728
0.0656388613
0.0532439695
0.0415201949
0.0304842894
0.0201489592
0.0105228648
0.0016106212
-0.0065872021
-0.0140740816
-0.0208575392
-0.0269491423
-0.0323645041
-0.0371232834
-0.0412491847
-0.0447699579
-0.0477173987
-0.0501282348
-0.0520480843
-0.0535282577
-0.0546241127
-0.0553892604
-0.0558409349
-0.0560058191
-0.0559134048
-0.0555919518
-0.0550684877
-0.0543688082
-0.0535174769
-0.0525378253
-0.0514519528
-0.0502807267
-0.0490437824
-0.0477595231
-0.0464451201
-0.0451165123
-0.0437884069
-0.0424742789
-0.0411863711
-0.0399356945
-0.0387320277
-0.0375839177
-0.0364975343
-0.0354711637
-0.0344994630
-0.0335758540
-0.0326925281
-0.0318392248
-0.0310005777
-0.0301766569
-0.0293696346
-0.0285808426
-0.0278107719
-0.0270590728
-0.0263245550
-0.0256051873
-0.0248980979
-0.0241995743
-0.0235050633
-0.0228091711
-0.0221056629
-0.0213874636
-0.0206466570
-0.0198744865
-0.0190613546
-0.0181968232
-0.0172696136
-0.0162685441
-0.0151873921
-0.0140213077
-0.0127646053
-0.0114107582
-0.0099523990
-0.0083813199
-0.0066884721
-0.0048639661
-0.0028970720
-0.0007762188
0.0014891578
0.0038459304
0.0064112702
0.0093127727
0.0126656446
0.0165727034
0.0211243776
0.0263987068
0.0324613417
0.0393655437
0.0471521856
0.0558497509
0.0654743342
0.0760296412
0.0875073745
0.0998893882
0.1131461743
0.1272358387
0.1421040961
0.1576843619
0.1738995707
0.1904384434
0.2069116668
0.2229590297
0.2382494232
0.2524808404
0.2653803767
0.2767042295
0.2862376985
0.2937951854
0.2992201942
0.3023853311
0.3031923042
0.3015719239
0.2974804837
0.2909372470
0.2822336433
0.2717028588
0.2596647266
0.2464257826
0.2322795957
0.2175065471
0.2023736662
0.1871346295
0.1720297609
0.1572860317
0.1431170605
0.1297231131
0.1172911028
0.1059163389
0.0953677096
0.0858180564
0.0774315281
0.0702865206
0.0643756764
0.0596058852
0.0557982835
0.0526882547
0.0499254292
0.0470736842
0.0436111440
0.0389301796
0.0323374092
0.0230536976
0.0102141188
-0.0081310653
-0.0393516573
-0.0765673463
-0.1108926087
-0.1349108834
-0.1426745310
-0.1297050159
-0.0929929179
-0.0309979333
0.0563511261
0.1676563324
0.3000506418
0.4491978948
0.6092928157
0.7730610131
0.9302305188
1.0563013992
1.1307276455
1.1423478935
1.0885256821
0.9751494531
0.8166325519
0.6346247903
0.4491026972
0.2763433221
0.1282168420
0.0120578124
-0.0693340993
-0.1171830764
-0.1331951983
-0.1250434251
-0.1006609725
-0.0668195611
-0.0291294166
0.0079607301
0.0411636430
0.0683535808
0.0885729971
0.1027377570
0.1125298957
0.1191938069
0.1237883572
0.1271868859
0.1300772058
0.1329616024
0.1361568343
0.1397941330
0.1438192031
0.1480219940
0.1525182519
0.1574265421
0.1627878192
0.1686392983
0.1750144467
0.1819428054
0.1894498850
0.1975574268
0.2062834278
0.2156421405
0.2256440729
0.2362959891
0.2476721473
0.2599326691
0.2729740365
0.2866774591
0.3009259644
0.3156043973
0.3305994204
0.3457995139
0.3610949755
0.3763779206
0.3915422821
0.4064838106
0.4211000743
0.4352905580
0.4489574670
0.4620053065
0.4743404039
0.4858709044
0.4965067704
0.5061597822
0.5147435377
0.5221734521
0.5283667585
0.5332425075
0.5367215674
0.5387266238
0.5391821801
0.5380145575
0.5351518944
0.5304898709
0.5240664981
0.5160536545
0.5066177271
0.4959191927
0.4841126180
0.4713466595
0.4577640636
0.4435016662
0.4286903396
0.4134545201
0.3979124372
0.3821764070
0.3663528362
0.3505423127
0.3348396929
0.3193339443
0.3041081238
0.2892393783
0.2747989445
0.2608521489
0.2474584079
0.2346712276
0.2225382040
0.2111010229
0.2003954600
0.1904513807
0.1812927403
0.1729365179
0.1653666803
0.1585378611
0.1524049243
0.1469242431
0.1420537005
0.1377525699
0.1339803921
0.1306974771
0.1278656348
0.1254481844
0.1234099546
0.1217172835
0.1203380189
0.1192415178
0.1183986469
0.1177817821
0.1173648091
0.1171231229
0.1170336278
0.1170747378
0.1172263764
0.1174699765
0.1177884803
0.1181663397
0.1185895159
0.1190454799
0.1195232117
0.1200132082
0.1205082976
0.1210037693
0.1214954295
0.1219806199
0.1224577126
0.1229252694
0.1233820289
0.1238269523
0.1242592900
0.1246784860
0.1250841610
0.1254761123
0.1258543135
0.1262189153
0.1265702444
0.1269088046
0.1272352760
0.1275505153
0.1278555559
0.1281516076
0.1284400570
0.1287224672
0.1290005778
0.1292763051
0.1295517419
0.1298291576
0.1301109984
0.1303998963
0.1307129796
0.1310589251
0.1314339364
0.1318405016
0.1322873934
0.1327896692
0.1333686711
0.1340520256
0.1348736442
0.1358737229
0.1370987420
0.1386014671
0.1404409478
0.1426825187
0.1453977990
0.1486646925
0.1525673877
0.1571963576
0.1626483599
0.1690264370
0.1764419918
0.1849982679
0.1947039518
0.2055284036
0.2174138436
0.2302736228
0.2439927867
0.2584293574
0.2734143609
0.2887517171
0.3042180060
0.3195627451
0.3345084555
0.3487506619
0.3619578930
0.3737716814
0.3838065633
0.3916500787
0.3969144124
0.3995349893
0.3995973832
0.3972098218
0.3925028922
0.3856295405
0.3767650719
0.3661071513
0.3538758021
0.3403134076
0.3256847097
0.3102770032
0.2944026529
0.2783983822
0.2626233203
0.2474589554
0.2332563262
0.2199774351
0.2077259842
0.1966180575
0.1867182064
0.1780394504
0.1705432762
0.1641396383
0.1586869588
0.1539921275
0.1498105015
0.1458459060
0.1417506334
0.1371254441
0.1315978667
0.1237115978
0.1120284401
0.0959545973
0.0757406780
0.0524816959
0.0281169194
0.0053361503
-0.0108720059
-0.0140656030
0.0012925238
0.0397790125
0.1050102580
0.1996421271
0.3252985251
0.4783143846
0.6472813157
0.8177976103
0.9728206640
1.0926669769
1.1566976371
1.1548601493
1.0845743677
0.9537570848
0.7814587588
0.5941844011
0.4158331004
0.2632449355
0.1461407776
0.0735544122
0.0401672757
0.0354341302
0.0501893191
0.0766464137
0.1083966585
0.1404089241
0.1690297071
0.1919831302
0.2083709419
0.2186725171
0.2247337880
0.2286478740
0.2312031483
0.2329493430
0.2343474441
0.2357696918
0.2374995799
0.2397318566
0.2425725238
0.2460388374
0.2500593075
0.2545458167
0.2596401342
0.2654097444
0.2719001439
0.2791461776
0.2871719309
0.2959888885
0.3055962017
0.3159823148
0.3271250217
0.3389914041
0.3515375847
0.3647415812
0.3787131527
0.3932800178
0.4082263119
0.4233461848
0.4384438006
0.4533333375
0.4678389879
0.4817949584
0.4950454700
0.5074447578
0.5188570711
0.5291566735
0.5382278426
0.5459648706
0.5522720636
0.5570637420
0.5602642406
0.5618079942
0.5616411322
0.5597213259
0.5560163169
0.5505038608
0.5430928547
0.5338476155
0.5230040252
0.5107872213
0.4974114448
0.4830800402
0.4679854559
0.4523092434
0.4362220583
0.4198836592
0.4034429088
0.3870377731
0.3707953217
0.3548317278
0.3392522682
0.3241513231
0.3096123767
0.2957080163
0.2824999330
0.2700389214
0.2583648044
0.2475048986
0.2374740812
0.2282762710
0.2199044906
0.2123537034
0.2056014961
0.1995866152
0.1942495403
0.1895331908
0.1853829268
0.1817465485
0.1785742963
0.1758188509
0.1734353334
0.1713813050
0.1696167672
0.1681041619
0.1668083710
0.1656967170
0.1647389625
0.1639073102
0.1631764034
0.1625233254
0.1619275999
0.1613712784
0.1608409035
0.1603275291
0.1598247409
0.1593285647
0.1588374670
0.1583523542
0.1578765731
0.1574151855
0.1569647857
0.1565218980
0.1560850195
0.1556531652
0.1552258676
0.1548031767
0.1543856602
0.1539744036
0.1535710097
0.1531775991
0.1527968099
0.1524317980
0.1520862367
0.1517643170
0.1514707475
0.1512107545
0.1509899967
0.1508124567
0.1506803003
0.1505960980
0.1505629378
0.1505844188
0.1506646040
0.1508080467
0.1510169893
0.1512966277
0.1516950851
0.1522698149
0.1530829554
0.1542013296
0.1556964451
0.1576444945
0.1601263551
0.1632275887
0.1670384421
0.1716538468
0.1771734190
0.1837014597
0.1913469547
0.2002235744
0.2105170902
0.2222143763
0.2350569115
0.2487768517
0.2630965893
0.2777286649
0.2923757680
0.3067307365
0.3204765568
0.3332863641
0.3448234419
0.3547412223
0.3626832862
0.3682833628
0.3711653300
0.3709397853
0.3674135757
0.3609522709
0.3519850560
0.3409245227
0.3281666694
0.3140909011
0.2990600293
0.2834202723
0.2675012551
0.2516160091
0.2360609515
0.2211152356
0.2070406299
0.1940822639
0.1824686737
0.1722089768
0.1630486457
0.1551783089
0.1486520031
0.1433593350
0.1390254810
0.1352111874
0.1313127699
0.1265621142
0.1200266758
0.1106094797
0.0970491209
0.0781697101
0.0549449945
0.0303012004
0.0083946477
-0.0053925540
-0.0044525055
0.0189038744
0.0700667991
0.1553501696
0.2765102192
0.4283955303
0.5989464370
0.7691949856
0.9133621635
1.0051214004
1.0286430078
0.9791278953
0.8627185934
0.6964992539
0.5084558913
0.3250225262
0.1596690529
0.0231094145
-0.0783369381
-0.1427450461
-0.1725844426
-0.1739536298
-0.1533603487
-0.1200490216
-0.0818574865
-0.0447041264
-0.0125878681
0.0124118169
0.0301348984
0.0422087482
0.0503282128
0.0555891392
0.0589363288
0.0611657233
0.0629244788
0.0647109492
0.0668746250
0.0696161313
0.0729872279
0.0768908094
0.0810933180
0.0856708022
0.0907806011
0.0964710350
0.1027827186
0.1097485609
0.1173937652
0.1257358291
0.1347845447
0.1445419981
0.1550025700
0.1661529352
0.1779720631
0.1904312264
0.2035425007
0.2174014026
0.2318520731
0.2467198854
0.2618366496
0.2770406127
0.2921764583
0.3070953066
0.3216547150
0.3357186771
0.3491576237
0.3618484222
0.3736743766
0.3845252279
0.3942971538
0.4028927685
0.4102211234
0.4161977063
0.4207444418
0.4237896914
0.4252682533
0.4251213623
0.4232966902
0.4197483454
0.4143787603
0.4071659512
0.3983083460
0.3880013314
0.3764321588
0.3637799410
0.3502155695
0.3359017171
0.3209929183
0.3056355723
0.2899679434
0.2741201608
0.2582142185
0.2423639757
0.2266751563
0.2112453492
0.1961640083
0.1815124524
0.1673638653
0.1537832955
0.1408276568
0.1285457277
0.1169781516
0.1061574370
0.0961079572
0.0868459590
0.0783800462
0.0707160661
0.0638261920
0.0576572196
0.0521578363
0.0472787437
0.0429726579
0.0391943092
0.0359004424
0.0330498165
0.0306032047
0.0285233948
0.0267751888
0.0253254029
0.0241428679
0.0231984287
0.0224649447
0.0219172894
0.0215323508
0.0212890312
0.0211682473
0.0211529299
0.0212280244
0.0213804903
0.0215992890
0.0218745348
0.0221969588
0.0225591782
0.0229558246
0.0233835460
0.0238416435
0.0243477213
0.0248994087
0.0254832077
0.0260867679
0.0266988865
0.0273095084
0.0279097256
0.0284917780
0.0290490529
0.0295760852
0.0300685571
0.0305232987
0.0309382874
0.0313126481
0.0316466533
0.0319417232
0.0322004252
0.0324264744
0.0326247473
0.0328023691
0.0329694993
0.0331376300
0.0333194010
0.0335285995
0.0337801604
0.0340901660
0.0344758462
0.0349555784
0.0355488875
0.0362764460
0.0371600738
0.0382227386
0.0394885612
0.0410470109
0.0430603196
0.0456514511
0.0489245256
0.0529648196
0.0578387654
0.0635939520
0.0702591241
0.0778441831
0.0863401862
0.0957193363
0.1059339804
0.1169157910
0.1285774042
0.1408126124
0.1534963640
0.1664847490
0.1796149923
0.1927054736
0.2055557282
0.2179464481
0.2296394813
0.2403778320
0.2498856606
0.2578682837
0.2640121742
0.2679849611
0.2694354295
0.2679935210
0.2632703330
0.2551923914
0.2447694724
0.2325176782
0.2188706014
0.2042316487
0.1889740480
0.1734415643
0.1579491581
0.1427817598
0.1281941142
0.1144107806
0.1016261328
0.0900043590
0.0795683686
0.0701233519
0.0618772124
0.0549487113
0.0493243499
0.0448583696
0.0412727518
0.0381572180
0.0349692298
0.0310339887
0.0255444364
0.0175612546
0.0060128650
-0.0125268188
-0.0439910911
-0.0795090419
-0.1101804090
-0.1286459413
-0.1290878481
-0.1072302610
-0.0603384295
0.0127813896
0.1117819313
0.2347748886
0.3783308834
0.5374795230
0.7053179976
0.8575017548
0.9646004516
1.0097820347
0.9868088336
0.9000375613
0.7634357926
0.5927381454
0.4075691652
0.2251005124
0.0588064623
-0.0814982659
-0.1890547660
-0.2638633142
-0.3084804230
-0.3262315067
-0.3212108793
-0.2982814230
-0.2630742098
-0.2219891224
-0.1821788649
-0.1484969067
-0.1209935693
-0.0993146802
-0.0829395272
-0.0711808580
-0.0631848808
-0.0579312638
-0.0542331352
-0.0508693691
-0.0475865687
-0.0443106639
-0.0409316161
-0.0373527616
-0.0334908122
-0.0292758546
-0.0246513508
-0.0195741379
-0.0140144284
-0.0079558096
-0.0013953297
0.0056732092
0.0132915312
0.0214988773
0.0303255435
0.0397930302
0.0499140427
0.0606925401
0.0721238005
0.0841943231
0.0968818119
0.1101551752
0.1239745263
0.1382911829
0.1530476675
0.1681777071
0.1836062335
0.1992493830
0.2150144967
0.2308001203
0.2464960040
0.2619831028
0.2771521091
0.2919675187
0.3062764831
0.3199173471
0.3327421968
0.3446175332
0.3554252088
0.3650610513
0.3734346273
0.3804692428
0.3861019427
0.3902835114
0.3929784723
0.3941650880
0.3938353606
0.3919950309
0.3886635792
0.3838742251
0.3776739270
0.3701233829
0.3612970298
0.3512830438
0.3401522033
0.3279602482
0.3148604780
0.3010039942
0.2865349542
0.2715905711
0.2563011134
0.2407899042
0.2251728354
0.2095576244
0.1940448526
0.1787281572
0.1636942310
0.1490227801
0.1347864410
0.1210508827
0.1078748300
0.0953100632
0.0834014185
0.0721867876
0.0616973405
0.0519836610
0.0430471910
0.0348550290
0.0273746179
0.0205737447
0.0144205406
0.0088834808
0.0039313848
-0.0004665838
-0.0043409172
-0.0077217633
-0.0106389261
-0.0131217757
-0.0151990992
-0.0168992999
-0.0182504369
-0.0192802252
-0.0200160357
-0.0204848950
-0.0207134855
-0.0207281458
-0.0205548698
-0.0202193077
-0.0197467653
-0.0191622043
-0.0184902424
-0.0177551527
-0.0169696792
-0.0161323063
-0.0152488965
-0.0143250753
-0.0133661926
-0.0123773226
-0.0113632641
-0.0103285402
-0.0092773985
-0.0082138110
-0.0071414127
-0.0060633890
-0.0049826193
-0.0039017073
-0.0028229810
-0.0017484480
-0.0006796699
0.0003821069
0.0014359119
0.0024810499
0.0035171016
0.0045439228
0.0055616454
0.0065706765
0.0075716988
0.0085656709
0.0095538265
0.0105376753
0.0115190022
0.0125003695
0.0135003567
0.0145164686
0.0155366478
0.0165525974
0.0175597814
0.0185573723
0.0195481469
0.0205386133
0.0215390403
0.0225634576
0.0236296555
0.0247591850
0.0259773579
0.0273132468
0.0287996849
0.0304732662
0.0323743455
0.0345470382
0.0370392205
0.0399014008
0.0431039275
0.0467417183
0.0509806437
0.0559610776
0.0617978970
0.0685804822
0.0763727167
0.0852129872
0.0951141835
0.1060636991
0.1180236872
0.1309316240
0.1446996520
0.1592144169
0.1743370676
0.1899032127
0.2057227557
0.2216012696
0.2373154025
0.2524491185
0.2666128469
0.2794650948
0.2907124467
0.3001095649
0.3074591892
0.3126121372
0.3154673039
0.3159716622
0.3141202625
0.3099562328
0.3035707787
0.2950996038
0.2846772676
0.2726393875
0.2593650439
0.2452056696
0.2304834326
0.2154930461
0.2005022537
0.1857518290
0.1714555761
0.1578003292
0.1449459529
0.1330253418
0.1221444209
0.1123821456
0.1038762124
0.0966782695
0.0906071028
0.0854561568
0.0809956332
0.0769724910
0.0731104468
0.0691099742
0.0646483043
0.0593794257
0.0529340840
0.0449197826
0.0349207818
0.0224980995
0.0071905759
-0.0114823665
-0.0340188953
-0.0588545046
-0.0796189881
-0.0900535375
-0.0848447211
-0.0596245906
-0.0109707484
0.0635936526
0.1655999092
0.2956337676
0.4527311604
0.6255927117
0.7965377029
0.9487123232
1.0662101722
1.1340722594
1.1386715169
1.0765859199
0.9544819794
0.7875544669
0.6005085400
0.4165695823
0.2498746015
0.1114895063
0.0071330288
-0.0610617472
-0.0964177116
-0.1042177865
-0.0902083171
-0.0605990715
-0.0220632407
0.0182625611
0.0536660485
0.0824332449
0.1047149019
0.1209929287
0.1321014977
0.1392270439
0.1439082653
0.1476911129
0.1509854521
0.1540582341
0.1571372339
0.1604006010
0.1639768594
0.1679449077
0.1723340187
0.1771250956
0.1823347901
0.1880264899
0.1942462055
0.2010331728
0.2084198530
0.2164319120
0.2250880788
0.2344002296
0.2443734652
0.2550061116
0.2662897200
0.2782090666
0.2907421530
0.3039025891
0.3177757501
0.3322278833
0.3471080867
0.3622698504
0.3775710568
0.3928739800
0.4080452868
0.4229560355
0.4374816768
0.4515020536
0.4649014007
0.4775685085
0.4893972627
0.5002861301
0.5101379695
0.5188600319
0.5263639604
0.5325657900
0.5373859482
0.5407492542
0.5425849196
0.5428265479
0.5414121349
0.5382672479
0.5332929977
0.5266256677
0.5184334510
0.5088792624
0.4981207380
0.4863102355
0.4735948339
0.4601163339
0.4460112575
0.4314108481
0.4164410709
0.4012226123
0.3858700537
0.3704889222
0.3551783891
0.3400323468
0.3251394095
0.3105829317
0.2964411919
0.2827873117
0.2696891357
0.2572092303
0.2454048830
0.2343281030
0.2240256210
0.2145388891
0.2058872856
0.1980312344
0.1909216982
0.1845108795
0.1787522131
0.1736003661
0.1690112382
0.1649419611
0.1613508991
0.1581976487
0.1554430389
0.1530500101
0.1509870005
0.1492249725
0.1477361211
0.1464938738
0.1454728904
0.1446490630
0.1439995160
0.1435026064
0.1431379232
0.1428862881
0.1427297548
0.1426516096
0.1426363712
0.1426697904
0.1427402167
0.1428485585
0.1429946096
0.1431771648
0.1433952815
0.1436482797
0.1439357423
0.1442575146
0.1446137047
0.1450046834
0.1454304414
0.1458879179
0.1463732503
0.1468828379
0.1474133428
0.1479616746
0.1485247882
0.1490997388
0.1496838405
0.1502746698
0.1508700661
0.1514681313
0.1520672302
0.1526659900
0.1532633009
0.1538723128
0.1544974294
0.1551214616
0.1557316954
0.1563199591
0.1568826242
0.1574206046
0.1579393568
0.1584488802
0.1589637169
0.1595034755
0.1600951785
0.1607713693
0.1615691349
0.1625301049
0.1637004518
0.1651308907
0.1668766791
0.1689968461
0.1714670265
0.1743977298
0.1779810824
0.1823777879
0.1877171271
0.1940969583
0.2015837169
0.2102124159
0.2199866453
0.2308785726
0.2428289425
0.2557470770
0.2695108756
0.2839668149
0.2989299487
0.3141839085
0.3295263797
0.3447240912
0.3592646254
0.3726776198
0.3845584103
0.3945680420
0.4024334842
0.4079476143
0.4109690154
0.4114219688
0.4092964539
0.4046481480
0.3975984266
0.3883343632
0.3771087295
0.3642399950
0.3501095974
0.3350321903
0.3193620961
0.3034748673
0.2877025042
0.2723334549
0.2576126159
0.2437413312
0.2308773931
0.2191351870
0.2085864481
0.1992597043
0.1911399324
0.1841685570
0.1782434507
0.1732189340
0.1689414899
0.1653099900
0.1617608611
0.1576249189
0.1521969063
0.1447354928
0.1344632749
0.1205667758
0.1021965960
0.0792807594
0.0545619656
0.0318761253
0.0156766317
0.0110343607
0.0236376709
0.0596641191
0.1231232069
0.2182016953
0.3453128206
0.4994718797
0.6702961079
0.8420045959
0.9936305444
1.1031275320
1.1527914220
1.1402036466
1.0224751146
0.8477821403
0.6647644840
0.4806240553
0.3185705553
0.1902295900
0.1010893269
0.0519451624
0.0388997220
0.0533628601
0.0841308352
0.1219229009
0.1591484069
0.1906808117
0.2138588566
0.2284865664
0.2368332485
0.2422149278
0.2455288039
0.2477316619
0.2495613154
0.2515191259
0.2538700018
0.2566423994
0.2597850335
0.2634238764
0.2676174094
0.2724178684
0.2778721683
0.2840219033
0.2909033464
0.2985474498
0.3069798447
0.3162266109
0.3264897813
0.3377640573
0.3499140706
0.3628041674
0.3762984088
0.3902605703
0.4045541422
0.4190423294
0.4335880418
0.4480538307
0.4623019287
0.4761942831
0.4895925557
0.5023581260
0.5143522259
0.5254359982
0.5354703154
0.5443157646
0.5518326476
0.5578809808
0.5623204953
0.5650106370
0.5658105662
0.5645791084
0.5611637325
0.5556574636
0.5482714740
0.5392103672
0.5286721790
0.5168483765
0.5039238588
0.4900769565
0.4754794321
0.4602964373
0.4446862145
0.4288002745
0.4127835588
0.3967744405
0.3809047247
0.3652996481
0.3500778789
0.3353515175
0.3212260956
0.3078005769
0.2951673568
0.2834122624
0.2726143889
0.2628008531
0.2539158157
0.2459006033
0.2386981894
0.2322531944
0.2265118854
0.2214221766
0.2169336288
0.2129974501
0.2095664951
0.2065952654
0.2040399521
0.2018587576
0.2000117157
0.1984605089
0.1971684662
0.1961005625
0.1952233184
0.1945047225
0.1939143917
0.1934235900
0.1930052281
0.1926341236
0.1923014600
0.1920048411
0.1917381513
0.1914956929
0.1912721868
0.1910627718
0.1908630051
0.1906688620
0.1904767361
0.1902834391
0.1900862009
0.1898826698
0.1896709120
0.1894495187
0.1892184710
0.1889786887
0.1887315152
0.1884787116
0.1882224575
0.1879653506
0.1877104070
0.1874637131
0.1872525861
0.1870660352
0.1868886597
0.1867128034
0.1865385550
0.1863737477
0.1862339596
0.1861425133
0.1861304759
0.1862366596
0.1865076209
0.1869976611
0.1877688261
0.1888909067
0.1904414381
0.1925057003
0.1950812500
0.1982650537
0.2023264517
0.2074785185
0.2138769961
0.2216202948
0.2307496044
0.2412490317
0.2530453841
0.2660081369
0.2799494327
0.2946240815
0.3097295612
0.3249060167
0.3397362609
0.3537655081
0.3665500928
0.3775510312
0.3863101935
0.3924719618
0.3957832292
0.3960934005
0.3933543919
0.3876206310
0.3790490571
0.3678996221
0.3545400447
0.3394436934
0.3231864895
0.3064343320
0.2896047933
0.2730463208
0.2571150802
0.2421010307
0.2282279253
0.2156533106
0.2044685271
0.1946987087
0.1863027834
0.1791734725
0.1731372913
0.1679545487
0.1633654714
0.1589885657
0.1534579309
0.1454920984
0.1340714443
0.1184381895
0.0980963994
0.0731562814
0.0481940250
0.0300868289
0.0257542671
0.0421539316
0.0862814939
0.1650870246
0.2815616469
0.4299792967
0.5978608747
0.7661899404
0.9094127128
0.9954497162
0.9997405174
0.9294291710
0.7998049936
0.6300013431
0.4429956190
0.2656092622
0.1220196519
0.0165435196
-0.0500309977
-0.0799252349
-0.0784826636
-0.0541688921
-0.0183132049
0.0197889102
0.0546853504
0.0828865729
0.1028874109
0.1151670053
0.1221869897
0.1266594541
0.1294358482
0.1313165150
0.1329172247
0.1346691749
0.1368189905
0.1394287237
0.1424123932
0.1458576902
0.1498504528
0.1544489223
0.1597045291
0.1656618924
0.1723588207
0.1798263115
0.1880885513
0.1971629156
0.2070599690
0.2177925665
0.2293644215
0.2417055194
0.2547294145
0.2683401418
0.2824322711
0.2968909069
0.3115917379
0.3264011648
0.3411761622
0.3557642394
0.3700034405
0.3837223443
0.3967400641
0.4088662481
0.4199010790
0.4296352742
0.4378841993
0.4445579880
0.4495565174
0.4528013602
0.4542380903
0.4538362821
0.4515895111
0.4475153536
0.4416553867
0.4340752863
0.4248661066
0.4141439205
0.4020488258
0.3887449212
0.3744203059
0.3592870804
0.3435813458
0.3274914076
0.3111411330
0.2947176762
0.2783921464
0.2623188101
0.2466350912
0.2314615711
0.2169019886
0.2030432401
0.1899553792
0.1776916171
0.1662883224
0.1557650211
0.1461243967
0.1373522902
0.1294176999
0.1222727817
0.1158628899
0.1101844535
0.1051869700
0.1008107371
0.0969990329
0.0936981160
0.0908571820
0.0884282084
0.0863660963
0.0846287278
0.0831769652
0.0819746515
0.0809886104
0.0801886458
0.0795475426
0.0790410658
0.0786479614
0.0783499557
0.0781317555
0.0779810485
0.0778884828
0.0778427611
0.0778355511
0.0778628006
0.0779208093
0.0780061713
0.0781148955
0.0782425735
0.0783851252
0.0785388223
0.0787002878
0.0788664962
0.0790347735
0.0792027972
0.0793685962
0.0795305510
0.0796873933
0.0798382065
0.0799824255
0.0801198364
0.0802505772
0.0803751370
0.0804943565
0.0806094278
0.0807218947
0.0808336522
0.0809469469
0.0810636877
0.0811726611
0.0812926352
0.0814605927
0.0817211803
0.0821265491
0.0827353662
0.0836127811
0.0848304253
0.0864664827
0.0886060282
0.0913407670
0.0947688868
0.0989950574
0.1041304311
0.1102926421
0.1176058072
0.1262005250
0.1363199640
0.1482669537
0.1616227516
0.1759286165
0.1907495830
0.2056744614
0.2203158379
0.2343100743
0.2473173085
0.2590214538
0.2691301401
0.2773736084
0.2835048139
0.2873004487
0.2885609807
0.2871106537
0.2827974870
0.2754932759
0.2653338117
0.2529451876
0.2389075641
0.2237508924
0.2079549260
0.1919492211
0.1761131364
0.1607758332
0.1462162754
0.1326632295
0.1202952646
0.1092407522
0.0995781220
0.0915956453
0.0851862581
0.0798485428
0.0750776776
0.0703655022
0.0652018526
0.0590745058
0.0514678893
0.0418630262
0.0297375358
0.0145655609
-0.0041827033
-0.0270447619
-0.0528639529
-0.0715680797
-0.0726738356
-0.0484119041
0.0062730414
0.0937223371
0.2135633291
0.3627093733
0.5338814048
0.7029759896
0.8408582311
0.9224294495
0.9301101428
0.8638471647
0.7323990751
0.5593362906
0.3740370238
0.1922846497
0.0304104048
-0.1010708050
-0.1963868360
-0.2552651831
-0.2825880060
-0.2837712065
-0.2646864490
-0.2316611612
-0.1914785335
-0.1513775195
-0.1180761718
-0.0923629613
-0.0731321271
-0.0593079258
-0.0498006173
-0.0435064658
-0.0393077391
-0.0360727088
-0.0329149216
-0.0297378201
-0.0264521156
-0.0229734937
-0.0192272363
-0.0151480749
-0.0106765283
-0.0057586504
-0.0003498937
0.0055846926
0.0120704629
0.0191234676
0.0267750595
0.0350675503
0.0440321499
0.0536885360
0.0640448532
0.0750977139
0.0868321975
0.0992218508
0.1122286882
0.1258031913
0.1398843090
0.1543994575
0.1692645207
0.1843838494
0.1996502622
0.2149450446
0.2301379498
0.2450871983
0.2596393498
0.2736257657
0.2869201107
0.2994184428
0.3109499581
0.3213624440
0.3305229396
0.3383177361
0.3446523764
0.3494516554
0.3526596197
0.3542395680
0.3541740506
0.3524648699
0.3491330800
0.3442189871
0.3377821489
0.3299013753
0.3206652132
0.3101327772
0.2984558810
0.2857989629
0.2723203345
0.2581721811
0.2435005615
0.2284454579
0.2131423044
0.1977222782
0.1823105379
0.1670261158
0.1519819180
0.1372847188
0.1230351019
0.1093274777
0.0962501298
0.0838880765
0.0722749967
0.0614125582
0.0512989972
0.0419291301
0.0332943528
0.0253826413
0.0181785513
0.0116632187
0.0058143588
0.0006062672
-0.0039901808
-0.0080075299
-0.0114817452
-0.0144522116
-0.0169617160
-0.0190558115
-0.0207826560
-0.0221937762
-0.0233441188
-0.0242707517
-0.0249823206
-0.0254997634
-0.0258428539
-0.0260301147
-0.0260788172
-0.0260049811
-0.0258233750
-0.0255475159
-0.0251896697
-0.0247608507
-0.0242708220
-0.0237280953
-0.0231399308
-0.0225123376
-0.0218500731
-0.0211566436
-0.0204343039
-0.0196840576
-0.0189056567
-0.0180976356
-0.0172586176
-0.0163877382
-0.0154830012
-0.0145315458
-0.0135143379
-0.0124478361
-0.0113484808
-0.0102307878
-0.0091071929
-0.0079880470
-0.0068816154
-0.0057940784
-0.0047295310
-0.0036899828
-0.0026753585
-0.0016834972
-0.0007101531
0.0002510051
0.0012083938
0.0021725146
0.0031559545
0.0041733856
0.0052415652
0.0063793361
0.0076076469
0.0089504759
0.0104351959
0.0120913612
0.0139506114
0.0160466714
0.0184141867
0.0210127063
0.0239626839
0.0274629834
0.0316835157
0.0367652382
0.0428201553
0.0499313178
0.0581528236
0.0675098171
0.0779984894
0.0895860784
0.1022108687
0.1157821918
0.1301804257
0.1452569953
0.1608343720
0.1767103249
0.1926384055
0.2081507176
0.2227822284
0.2361226759
0.2478168522
0.2575646284
0.2651209544
0.2702958675
0.2729547149
0.2730181752
0.2704620188
0.2653170605
0.2576475428
0.2477593498
0.2360632976
0.2229507767
0.2087937525
0.1939447649
0.1787369282
0.1634839314
0.1484800382
0.1340000867
0.1202994896
0.1076142344
0.0959874890
0.0852794042
0.0757592802
0.0676051943
0.0608820757
0.0555425284
0.0514269077
0.0482633204
0.0456676248
0.0431434309
0.0400820998
0.0357627444
0.0293522289
0.0199051690
0.0063639319
-0.0179783461
-0.0553396505
-0.0939110732
-0.1237132615
-0.1368046513
-0.1272814671
-0.0912777218
-0.0269652172
0.0654464567
0.1837099212
0.3235400090
0.4786137642
0.6405704563
0.7990125220
0.9362215789
1.0222327233
1.0416345448
0.9906637194
0.8768894420
0.7178368572
0.5349616123
0.3500395071
0.1799743441
0.0365417331
-0.0731030967
-0.1465203883
-0.1872534755
-0.1998730362
-0.1896173940
-0.1623925173
-0.1247720200
-0.0839971609
-0.0475580948
-0.0181057939
0.0048069278
0.0217939705
0.0336747252
0.0414740632
0.0464214616
0.0499503696
0.0531946104
0.0562955507
0.0594148443
0.0626915845
0.0662415966
0.0701574369
0.0745083932
0.0793404845
0.0846764616
0.0905158370
0.0968592350
0.1037568505
0.1112593141
0.1194067316
0.1282286841
0.1377442278
0.1479618944
0.1588796907
0.1704850987
0.1827550757
0.1956560544
0.2091439426
0.2231641313
0.2376522421
0.2525347418
0.2677277166
0.2831367282
0.2986568134
0.3141724858
0.3296094035
0.3448749205
0.3597785746
0.3741426453
0.3878032415
0.4006103011
0.4124275919
0.4231327106
0.4326170837
0.4407859667
0.4475584447
0.4528674320
0.4566596726
0.4588957396
0.4595500355
0.4586107922
0.4560800710
0.4519737627
0.4463215801
0.4390844258
0.4302899709
0.4201224145
0.4087590410
0.3963695633
0.3831161236
0.3691532929
0.3546280711
0.3396798874
0.3244405995
0.3090344944
0.2935782878
0.2781811245
0.2629445783
0.2479626518
0.2333217767
0.2191008136
0.2053710521
0.1921962106
0.1796324366
0.1677283066
0.1565248259
0.1460554289
0.1363459789
0.1274161987
0.1193003448
0.1119723825
0.1053854969
0.0994944892
0.0942557768
0.0896273924
0.0855688369
0.0820409163
0.0790060131
0.0764281258
0.0742728695
0.0725074749
0.0711007894
0.0700232761
0.0692470145
0.0687457003
0.0684946451
0.0684707768
0.0686526395
0.0690203935
0.0695558150
0.0702422965
0.0710648468
0.0720100906
0.0730662545
0.0742206353
0.0754567017
0.0767588372
0.0781130415
0.0795069304
0.0809297358
0.0823723058
0.0838271048
0.0852882131
0.0867513272
0.0882137600
0.0896744402
0.0911339128
0.0925943392
0.0940550066
0.0954986361
0.0969115944
0.0982818371
0.0995983474
0.1008511364
0.1020312425
0.1031307319
0.1041426986
0.1050612640
0.1058815918
0.1066031797
0.1072340301
0.1077842007
0.1082647766
0.1086878709
0.1090666244
0.1094153684
0.1097498945
0.1100870929
0.1104448815
0.1108422058
0.1112990390
0.1118363819
0.1124713656
0.1132022972
0.1141174610
0.1153206348
0.1169113426
0.1189848551
0.1216321896
0.1249401097
0.1289911256
0.1338634942
0.1396312188
0.1463640389
0.1541244158
0.1629633181
0.1729264011
0.1840550663
0.1963887883
0.2100516653
0.2248347723
0.2403786661
0.2563367909
0.2723754783
0.2881739473
0.3034243045
0.3178315436
0.3311135461
0.3430010806
0.3532378033
0.3615802577
0.3677978749
0.3716729731
0.3730007584
0.3715893238
0.3672344044
0.3601067324
0.3506605594
0.3393236751
0.3264973760
0.3125595217
0.2978602731
0.2827213045
0.2674358039
0.2522684728
0.2374554117
0.2232038487
0.2096924441
0.1970713718
0.1854623190
0.1749584867
0.1656245894
0.1574968550
0.1505083751
0.1444737618
0.1393893418
0.1351277363
0.1314190826
0.1278510340
0.1238687595
0.1187749441
0.1117297887
0.1017510102
0.0877138398
0.0687007597
0.0458753945
0.0218099969
-0.0000526118
-0.0153992674
-0.0190464632
-0.0049403498
0.0329573372
0.0985406374
0.1963569700
0.3261780338
0.4824877563
0.6544822935
0.8260700299
0.9760510940
1.0835192324
1.1294117676
1.1039638963
1.0092409236
0.8591382633
0.6782082952
0.4926903270
0.3235669249
0.1848853736
0.0837047422
0.0214945405
-0.0048451094
-0.0032870531
0.0183072174
0.0523344380
0.0914495722
0.1285658504
0.1579195917
0.1794088369
0.1943829561
0.2042022833
0.2102600294
0.2139822825
0.2167824732
0.2193418006
0.2218688839
0.2245501274
0.2275306655
0.2309143632
0.2347638156
0.2391003483
0.2439323120
0.2493193656
0.2553166340
0.2619692758
0.2693131506
0.2773760368
0.2861761514
0.2957218078
0.3060114159
0.3170334818
0.3287666082
0.3411794942
0.3542309352
0.3680064765
0.3824836931
0.3974492602
0.4126994123
0.4280399594
0.4432862875
0.4582633582
0.4728057088
0.4867574526
0.4999722784
0.5123134508
0.5236538102
0.5338757728
0.5428713304
0.5505420506
0.5567990765
0.5615621618
0.5647575497
0.5663204439
0.5661956237
0.5643374443
0.5607098364
0.5552713303
0.5479195047
0.5388298076
0.5282300099
0.5163370201
0.5033568846
0.4894847874
0.4749050501
0.4597911322
0.4443056307
0.4286002806
0.4128159542
0.3970826618
0.3815195514
0.3662349085
0.3513261566
0.3368798565
0.3229717071
0.3096665449
0.2970192946
0.2850772426
0.2738774964
0.2634463012
0.2537990398
0.2449402327
0.2368635383
0.2295674275
0.2230270848
0.2171850811
0.2119863050
0.2073780886
0.2033102076
0.1997348812
0.1966067725
0.1938829876
0.1915230768
0.1894890334
0.1877452947
0.1862587413
0.1849986976
0.1839369313
0.1830476540
0.1823075206
0.1816956297
0.1811931458
0.1807823171
0.1804475295
0.1801756123
0.1799558385
0.1797799246
0.1796420231
0.1795386772
0.1794688506
0.1794339504
0.1794364347
0.1794716662
0.1795333873
0.1796161344
0.1797151334
0.1798262997
0.1799462383
0.1800722434
0.1802022990
0.1803350784
0.1804699444
0.1806069493
0.1807468351
0.1808910330
0.1810416638
0.1812014240
0.1813732645
0.1815607214
0.1817680208
0.1820000778
0.1822624972
0.1825615733
0.1829042899
0.1832983203
0.1837520272
0.1842744627
0.1848724749
0.1855209384
0.1862904083
0.1872813800
0.1885915620
0.1903158749
0.1925464522
0.1953726399
0.1988809966
0.2031552935
0.2082765143
0.2143228555
0.2213697261
0.2294897475
0.2387528661
0.2492266956
0.2609787809
0.2742264760
0.2887197175
0.3039738775
0.3195333819
0.3349716410
0.3498910855
0.3639232067
0.3767285579
0.3879967539
0.3974464711
0.4048254473
0.4099104822
0.4125074368
0.4124512340
0.4096058581
0.4038643550
0.3952292686
0.3841471832
0.3711724229
0.3568152184
0.3415416613
0.3257737040
0.3098891793
0.2942218661
0.2790614269
0.2646533850
0.2511991246
0.2388558908
0.2277367892
0.2179107865
0.2094020390
0.2020218502
0.1957338355
0.1905413220
0.1862475447
0.1824556464
0.1785686779
0.1737895976
0.1671212720
0.1573664753
0.1432690679
0.1243118937
0.1012659058
0.0766365856
0.0546857275
0.0414314395
0.0438601784
0.0690829569
0.1247591320
0.2145563126
0.3379149817
0.4900484956
0.6639467564
0.8401816392
0.9836235510
1.0692470469
1.0833402637
1.0235049177
0.8986563054
0.7290233029
0.5433345956
0.3641426012
0.2072969771
0.0835083632
-0.0016607258
-0.0477958999
-0.0596308944
-0.0464230034
-0.0165458441
0.0211069246
0.0592388752
0.0927247208
0.1186102859
0.1361123949
0.1466189696
0.1533523496
0.1577567890
0.1605823896
0.1625828438
0.1643420432
0.1662740793
0.1686232431
0.1714640251
0.1747031664
0.1783389073
0.1824909724
0.1872103268
0.1925421136
0.1985256545
0.2051944493
0.2125761762
0.2206926917
0.2295600306
0.2391884060
0.2496295199
0.2610590803
0.2733689773
0.2864161449
0.3000587666
0.3141565578
0.3285708999
0.3431648405
0.3578030932
0.3723520371
0.3866797062
0.4006557909
0.4141516477
0.4270402991
0.4391964336
0.4504964060
0.4608182369
0.4700416134
0.4780478883
0.4847200808
0.4899428760
0.4936026253
0.4955873461
0.4957867217
0.4940921019
0.4903805633
0.4846654361
0.4771349086
0.4679759677
0.4573710390
0.4454971604
0.4325255529
0.4186216208
0.4039449514
0.3886493152
0.3728826655
0.3567871390
0.3404990554
0.3241489173
0.3078614106
0.2917554042
0.2759439501
0.2605342833
0.2456278219
0.2313201673
0.2177011036
0.2048545984
0.1928588021
0.1817857540
0.1716606183
0.1624380463
0.1540693439
0.1465069719
0.1397042695
0.1336141121
0.1281899441
0.1233863646
0.1191591275
0.1154651420
0.1122624672
0.1095101837
0.1071683882
0.1051983259
0.1035623974
0.1022241582
0.1011483191
0.1003007463
0.0996484608
0.0991596389
0.0988036123
0.0985508675
0.0983730464
0.0982459725
0.0981662204
0.0981275416
0.0981224497
0.0981438511
0.0981850452
0.0982399630
0.0983044113
0.0983751584
0.0984493672
0.0985245932
0.0985987846
0.0986702830
0.0987378226
0.0988005305
0.0988579268
0.0989099246
0.0989568296
0.0989993408
0.0990385497
0.0990759411
0.0991133925
0.0991531743
0.0991979499
0.0992582802
0.0993438699
0.0994419981
0.0995445974
0.0996491175
0.0997585249
0.0998813030
0.1000312322
0.1002261564
0.1004888458
0.1008475856
0.1013361783
0.1019939428
0.1028657182
0.1040019682
0.1054588126
0.1072294301
0.1093302211
0.1119985543
0.1154415172
0.1198279741
0.1252885664
0.1319157119
0.1397636057
0.1488482192
0.1591473009
0.1706003762
0.1831087471
0.1965354925
0.2107054682
0.2254053067
0.2403834173
0.2553795402
0.2699790348
0.2836030774
0.2957478068
0.3059899758
0.3139869511
0.3194767132
0.3222778568
0.3222895904
0.3194917363
0.3139447311
0.3057896250
0.2952335519
0.2825361480
0.2682121013
0.2527725930
0.2366812037
0.2203539136
0.2041591027
0.1884175505
0.1734024360
0.1593393381
0.1464062351
0.1347335049
0.1244026727
0.1152338878
0.1072510270
0.1005749625
0.0951500591
0.0907441781
0.0869486766
0.0831784085
0.0786717637
0.0724906930
0.0635206488
0.0504535034
0.0322616712
0.0098621137
-0.0143324701
-0.0365532057
-0.0516750424
-0.0532167538
-0.0333456029
0.0137938362
0.0939094133
0.2098201408
0.3575576504
0.5263661921
0.6987026350
0.8502364667
0.9520707143
0.9854150096
0.9450964638
0.8401953671
0.6877825378
0.5080159110
0.3214464213
0.1465232180
-0.0034686557
-0.1225198818
-0.2077108126
-0.2589008909
-0.2787286497
-0.2726117123
-0.2484619710
-0.2137222361
-0.1748491851
-0.1369712738
-0.1037452023
-0.0773559156
-0.0585166033
-0.0464686997
-0.0389818837
-0.0334670922
-0.0295536434
-0.0266842820
-0.0243738839
-0.0222300303
-0.0199539226
-0.0173403895
-0.0142778873
-0.0107485003
-0.0068280440
-0.0025456296
0.0022124604
0.0074981951
0.0133565847
0.0198257159
0.0269367521
0.0347139332
0.0431745759
0.0523290732
0.0621808951
0.0727265879
0.0839557746
0.0958511548
0.1083885048
0.1215366775
0.1352815724
0.1496863116
0.1646230058
0.1799353035
0.1954706970
0.2110818262
0.2266264920
0.2419676553
0.2569734379
0.2715171218
0.2854771499
0.2987371251
0.3111858113
0.3227171325
0.3332301735
0.3426291795
0.3508235561
0.3577278697
0.3632618468
0.3673503747
0.3699235012
0.3709164344
0.3702695432
0.3679218633
0.3638223976
0.3580792433
0.3508246328
0.3421889774
0.3323023520
0.3212937784
0.3092903001
0.2964169708
0.2827968547
0.2685510267
0.2537985979
0.2386567548
0.2232407046
0.2076636649
0.1920368640
0.1764695404
0.1610689432
0.1459403321
0.1311869772
0.1169101592
0.1032091692
0.0901813087
0.0779198386
0.0664570212
0.0557775987
0.0458669925
0.0367091020
0.0282863043
0.0205793622
0.0135665457
0.0072240216
0.0015264271
-0.0035531230
-0.0080430361
-0.0119732416
-0.0153751912
-0.0182818587
-0.0207277399
-0.0227488531
-0.0243827385
-0.0256684586
-0.0266465979
-0.0273592632
-0.0278500834
-0.0281642096
-0.0283413733
-0.0283860311
-0.0283109097
-0.0281304732
-0.0278584369
-0.0275077674
-0.0270906824
-0.0266186511
-0.0261023183
-0.0255507274
-0.0249716351
-0.0243720405
-0.0237581941
-0.0231355979
-0.0225090047
-0.0218823841
-0.0212588460
-0.0206407294
-0.0200296243
-0.0194263723
-0.0188310661
-0.0182430496
-0.0176609181
-0.0170825180
-0.0165049470
-0.0159245542
-0.0153277464
-0.0146721939
-0.0139735754
-0.0132528259
-0.0125275716
-0.0118121302
-0.0111175109
-0.0104514518
-0.0098188430
-0.0092215722
-0.0086582240
-0.0081240744
-0.0076110910
-0.0071079324
-0.0065999489
-0.0060691820
-0.0054943646
-0.0048509209
-0.0041109666
-0.0032433086
-0.0022134455
-0.0009835669
0.0004874461
0.0022440210
0.0043338939
0.0068081095
0.0097210214
0.0131270437
0.0170231831
0.0215549774
0.0269007476
0.0332025433
0.0405661238
0.0490607249
0.0587191335
0.0695378619
0.0814771514
0.0944609720
0.1083770229
0.1230767147
0.1383751169
0.1540510097
0.1698469025
0.1854690336
0.2006007727
0.2149428674
0.2280777712
0.2396244460
0.2492651094
0.2567452344
0.2618735499
0.2645220402
0.2646259451
0.2621837601
0.2572572365
0.2499711216
0.2404689399
0.2290618378
0.2161358785
0.2020582678
0.1871768016
0.1718198521
0.1562963682
0.1408958751
0.1258884746
0.1115248449
0.0980362407
0.0855138355
0.0738382135
0.0632668467
0.0539941506
0.0461186819
0.0396431381
0.0344743577
0.0304233200
0.0272051454
0.0244390951
0.0216485714
0.0182611174
0.0136084171
0.0069262957
-0.0026452810
-0.0177138765
-0.0478922662
-0.0860078120
-0.1229497288
-0.1510624758
-0.1641457561
-0.1574545174
-0.1276989677
-0.0730446436
0.0068876463
0.1110218494
0.2368266686
0.3803155629
0.5360467468
0.6971231906
0.8535879070
0.9769528051
1.0451435697
1.0477206635
0.9836374053
0.8612399701
0.6982583279
0.5153846803
0.3298516378
0.1570041031
0.0079420654
-0.1104786104
-0.1956463326
-0.2477098211
-0.2684476645
-0.2653309615
-0.2453214969
-0.2145195607
-0.1781639490
-0.1406319632
-0.1054394106
-0.0752406038
-0.0518283613
-0.0352520881
-0.0236592305
-0.0157326241
-0.0103431159
-0.0065466943
-0.0035844891
-0.0008827714
0.0019470463
0.0051084102
0.0086196251
0.0123208531
0.0162572051
0.0205690290
0.0252985346
0.0304842574
0.0361611148
0.0423604076
0.0491098202
0.0564334208
0.0643516946
0.0728817377
0.0820371232
0.0918278079
0.1022601325
0.1133368211
0.1250572118
0.1374185550
0.1503877141
0.1639168980
0.1779519606
0.1924324007
0.2072913624
0.2224556347
0.2378456519
0.2533754932
0.2689528831
0.2844791909
0.2998493704
0.3149508228
0.3296635005
0.3438609609
0.3574104062
0.3701726840
0.3820051410
0.3928268857
0.4025398517
0.4110365020
0.4182246426
0.4240274229
0.4283833354
0.4312462157
0.4325852429
0.4323849390
0.4306451694
0.4273811426
0.4226234104
0.4164178678
0.4088257529
0.3999236470
0.3898034749
0.3785725042
0.3663469925
0.3531787469
0.3391990143
0.3245649954
0.3094256793
0.2939217570
0.2781856213
0.2623413671
0.2465047618
0.2307830182
0.2152749180
0.2000709439
0.1852532803
0.1708958137
0.1570641322
0.1438155262
0.1311989875
0.1192552103
0.1080165905
0.0975072257
0.0877429157
0.0787701562
0.0706148840
0.0632358368
0.0565927651
0.0506466953
0.0453598173
0.0406929516
0.0366055121
0.0330580683
0.0300124657
0.0274318256
0.0252805449
0.0235242964
0.0221300286
0.0210659656
0.0203016073
0.0198077297
0.0195563839
0.0195208974
0.0196758730
0.0199971895
0.0204620012
0.0210487385
0.0217371072
0.0225080890
0.0233439414
0.0242281975
0.0251456664
0.0260824327
0.0270258567
0.0279646698
0.0288913475
0.0298022796
0.0306952605
0.0315693601
0.0324334182
0.0332974899
0.0341572073
0.0350087837
0.0358490915
0.0366755717
0.0374862320
0.0382796472
0.0390549589
0.0398118760
0.0405506739
0.0412721953
0.0419778497
0.0426696136
0.0433500304
0.0440222105
0.0446898312
0.0453571368
0.0460289386
0.0467106148
0.0474080737
0.0481267367
0.0488714046
0.0496473821
0.0504605407
0.0513173190
0.0522247225
0.0531903234
0.0542222612
0.0553292423
0.0565205399
0.0578059942
0.0591960124
0.0607015686
0.0623330421
0.0640462694
0.0659015306
0.0680148479
0.0704936372
0.0734367080
0.0769342635
0.0810679004
0.0859106090
0.0915267733
0.0979721709
0.1052939286
0.1135291471
0.1227046363
0.1328385019
0.1439402433
0.1560107533
0.1690423185
0.1830186175
0.1979218363
0.2138742964
0.2305706897
0.2475539642
0.2644038299
0.2807367582
0.2962059822
0.3105014967
0.3233500580
0.3345151842
0.3437971550
0.3510330117
0.3560965571
0.3588983558
0.3593857341
0.3575427798
0.3533903424
0.3469861151
0.3384274854
0.3278507670
0.3154608328
0.3016543652
0.2868360243
0.2713757915
0.2556089699
0.2398361836
0.2243233782
0.2093018206
0.1949680991
0.1814841234
0.1689771245
0.1575396546
0.1472295875
0.1380701182
0.1300497631
0.1231223599
0.1172070679
0.1121883673
0.1079160601
0.1043317541
0.1011761178
0.0978235892
0.0936384242
0.0879751165
0.0801775690
0.0695822932
0.0555186443
0.0373083827
0.0147196359
-0.0096688117
-0.0321560098
-0.0487399865
-0.0551177113
-0.0466850930
-0.0185369800
0.0345205617
0.1161136686
0.2273033815
0.3660319254
0.5262692971
0.6980132659
0.8672893731
1.0161509319
1.1228099462
1.1709422267
1.1548941139
1.0755894200
0.9417111982
0.7697034273
0.5830869313
0.4026681889
0.2428162041
0.1132943695
0.0191273163
-0.0393990859
-0.0647834178
-0.0622254585
-0.0408025357
-0.0083100741
0.0288284258
0.0655613877
0.0982091596
0.1244640137
0.1434399993
0.1563228315
0.1647933770
0.1702154352
0.1737277805
0.1762441616
0.1784533019
0.1808188995
0.1835796267
0.1867491072
0.1901386989
0.1938442797
0.1979896926
0.2026160292
0.2077611147
0.2134595081
0.2197425050
0.2266382370
0.2341716948
0.2423646108
0.2512354511
0.2608010109
0.2711249460
0.2822012972
0.2939794103
0.3064029834
0.3194100666
0.3329330629
0.3468987272
0.3612281670
0.3758368419
0.3906345640
0.4055254978
0.4204081600
0.4351754393
0.4497157395
0.4639136143
0.4776481237
0.4907926799
0.5032150476
0.5147773437
0.5253360374
0.5347419506
0.5428402570
0.5494704831
0.5544706823
0.5577794379
0.5594175784
0.5594145764
0.5578074312
0.5546406692
0.5499663439
0.5438440356
0.5363408516
0.5275314265
0.5174979215
0.5063300250
0.4941249522
0.4809874456
0.4670297539
0.4523702426
0.4371325042
0.4214474466
0.4054535045
0.3892966397
0.3731303411
0.3571156217
0.3414208719
0.3262217799
0.3116688253
0.2977536193
0.2844952950
0.2719172619
0.2600380804
0.2488714618
0.2384262682
0.2287065125
0.2197113587
0.2114351216
0.2038672667
0.1969924106
0.1907903206
0.1852359151
0.1802992631
0.1759456051
0.1721369790
0.1688334075
0.1659903441
0.1635583931
0.1614833098
0.1597060003
0.1581634589
0.1568439961
0.1557441612
0.1548413513
0.1541144307
0.1535437309
0.1531110506
0.1527996560
0.1525942800
0.1524811232
0.1524478532
0.1524836049
0.1525789802
0.1527260486
0.1529183464
0.1531508776
0.1534201129
0.1537239906
0.1540618984
0.1544329934
0.1548348148
0.1552660426
0.1557253563
0.1562050790
0.1566995470
0.1572038724
0.1577136410
0.1582250587
0.1587346783
0.1592393647
0.1597362952
0.1602229590
0.1606971579
0.1611570057
0.1616009285
0.1620276646
0.1624362646
0.1628260912
0.1631968195
0.1635484366
0.1638812422
0.1641958478
0.1644931775
0.1647744829
0.1650429137
0.1652269906
0.1653204093
0.1654015058
0.1655469189
0.1658315901
0.1663287633
0.1671099853
0.1682451052
0.1698022750
0.1718479492
0.1744468848
0.1776621415
0.1815550819
0.1861853707
0.1916109757
0.1978881669
0.2050715172
0.2132139021
0.2223664997
0.2325787904
0.2438985578
0.2563718876
0.2700454359
0.2847943431
0.3002128460
0.3158928091
0.3314497047
0.3465231000
0.3607766572
0.3738981330
0.3855993786
0.3956161747
0.4037080017
0.4096583770
0.4132749126
0.4143893157
0.4128573880
0.4085535465
0.4015655135
0.3922883340
0.3811166752
0.3684250782
0.3545679582
0.3398796044
0.3246741800
0.3092457221
0.2938681420
0.2787952248
0.2642606397
0.2504797048
0.2376514170
0.2259551384
0.2154331041
0.2058716384
0.1974587755
0.1903038768
0.1843928932
0.1795883651
0.1756294223
0.1721317838
0.1685877585
0.1643662445
0.1587127293
0.1507492899
0.1394745929
0.1237171318
0.1033873102
0.0799664631
0.0559560536
0.0348739497
0.0212544238
0.0206481528
0.0396222184
0.0837383469
0.1571526786
0.2634982784
0.4010777156
0.5627917034
0.7361390990
0.9032169034
1.0411587964
1.1289116617
1.1513628207
1.1033104887
0.9902971909
0.8286097622
0.6440055234
0.4600031255
0.2942937275
0.1590123472
0.0605777336
-0.0003076330
-0.0261272674
-0.0227685820
-0.0003006228
0.0327799016
0.0696117714
0.1049692556
0.1352621134
0.1585360862
0.1745368415
0.1849983442
0.1915520342
0.1954744353
0.1978277768
0.1994599938
0.2010047265
0.2028813209
0.2052948286
0.2082360066
0.2114824014
0.2150129907
0.2190314444
0.2235848395
0.2287156521
0.2344617583
0.2408564334
0.2479283524
0.2557015896
0.2641956190
0.2734253410
0.2834842525
0.2943978940
0.3060826489
0.3184512844
0.3314126038
0.3448719310
0.3587311997
0.3728889541
0.3872403481
0.4016771461
0.4160876386
0.4303564038
0.4443645518
0.4579898028
0.4711064873
0.4835855458
0.4952945289
0.5060975973
0.5158555220
0.5244256839
0.5316620741
0.5374152938
0.5415325544
0.5438542403
0.5441752802
0.5425347989
0.5390576413
0.5338682357
0.5270907640
0.5188494473
0.5092681662
0.4984703849
0.4865791509
0.4737170955
0.4600064335
0.4455689631
0.4305260661
0.4149987079
0.3991074374
0.3829723869
0.3667132723
0.3504493933
0.3342996327
0.3183824572
0.3028159168
0.2877176451
0.2732048592
0.2593943600
0.2464025315
0.2343378992
0.2231773550
0.2128688490
0.2033775972
0.1946687523
0.1867075626
0.1794591709
0.1728885711
0.1669606079
0.1616399777
0.1568912275
0.1526788054
0.1489672562
0.1457210514
0.1429045136
0.1404818165
0.1384169852
0.1366738957
0.1352162751
0.1340077017
0.1330116050
0.1321912655
0.1315098148
0.1309329795
0.1304587450
0.1300818085
0.1297924845
0.1295817889
0.1294414389
0.1293632092
0.1293376320
0.1293555749
0.1294086068
0.1294889980
0.1295897203
0.1297044467
0.1298275516
0.1299541107
0.1300799011
0.1302014014
0.1303157913
0.1304209521
0.1305154663
0.1305986178
0.1306703919
0.1307415289
0.1308134887
0.1308722257
0.1309060838
0.1309058087
0.1308645478
0.1307778503
0.1306436672
0.1304623518
0.1302377324
0.1299794799
0.1297003549
0.1294155198
0.1291425388
0.1289013780
0.1287144051
0.1286063555
0.1286041484
0.1287370194
0.1290366060
0.1295358120
0.1302212589
0.1311988249
0.1326260302
0.1346443174
0.1373790507
0.1409395170
0.1454189250
0.1508944055
0.1574270115
0.1650617181
0.1738274226
0.1837369443
0.1947870245
0.2069573752
0.2202104847
0.2345948427
0.2497655789
0.2652119916
0.2804635611
0.2950899498
0.3087010018
0.3209467433
0.3315173823
0.3401433089
0.3465950951
0.3506834948
0.3522594439
0.3512140601
0.3474786433
0.3410243256
0.3319088903
0.3205497804
0.3074404139
0.2930377014
0.2777620460
0.2619973431
0.2460909806
0.2303538388
0.2150608069
0.2004521314
0.1867319720
0.1740679807
0.1625913020
0.1523965729
0.1433616247
0.1353904060
0.1286205044
0.1230330762
0.1184500449
0.1145341007
0.1107887001
0.1065580663
0.1010271890
0.0932218246
0.0820084959
0.0661086959
0.0452375701
0.0212428447
-0.0028133442
-0.0227347805
-0.0331911680
-0.0277181309
0.0008906112
0.0572294175
0.1470219878
0.2712250311
0.4245665156
0.5955456698
0.7664329820
0.9133877544
1.0117388979
1.0435344201
1.0024896586
0.8951680500
0.7390212048
0.5567796405
0.3712068349
0.2002430810
0.0571314475
-0.0502826203
-0.1223578692
-0.1616480819
-0.1720637109
-0.1588718785
-0.1286963769
-0.0895176680
-0.0505298875
-0.0171998502
0.0098215698
0.0304125816
0.0449350359
0.0542343396
0.0596394565
0.0629629068
0.0657275735
0.0681291816
0.0704127462
0.0727823138
0.0754004027
0.0783880037
0.0818245796
0.0857480658
0.0901548699
0.0950358164
0.1004530100
0.1064627263
0.1131111928
0.1204347303
0.1284597532
0.1372027692
0.1466703794
0.1568592784
0.1677562541
0.1793381066
0.1915713770
0.2044126050
0.2178084236
0.2316955592
0.2460008316
0.2606680834
0.2756809774
0.2908614771
0.3060234874
0.3209904427
0.3355953070
0.3496805740
0.3630982667
0.3757099379
0.3873866698
0.3980090744
0.4074672931
0.4156609967
0.4224993860
0.4279011910
0.4317946714
0.4341176165
0.4348173451
0.4338507055
0.4311842307
0.4267241410
0.4203185220
0.4121540813
0.4024338519
0.3913523789
0.3790957195
0.3658414409
0.3517585942
0.3370077215
0.3217408759
0.3061016229
0.2902250396
0.2742377154
0.2582577515
0.2423947610
0.2267498693
0.2114157135
0.1964764427
0.1820077181
0.1680767127
0.1547421118
0.1420541123
0.1300544233
0.1187762659
0.1082442171
0.0984736051
0.0894710386
0.0812346383
0.0737540368
0.0670155135
0.0610011903
0.0556601869
0.0509410734
0.0467945330
0.0431733616
0.0400324679
0.0373288736
0.0350217133
0.0330722341
0.0314437964
0.0301018731
0.0290140503
0.0281500266
0.0274816136
0.0269827359
0.0266294308
0.0263998484
0.0262742519
0.0262350169
0.0262668160
0.0263573850
0.0264968801
0.0266775702
0.0268938373
0.0271421760
0.0274212049
0.0277349013
0.0280819769
0.0284565285
0.0288532868
0.0292676129
0.0296954978
0.0301335626
0.0305790586
0.0310298672
0.0314844996
0.0319420976
0.0324024326
0.0328659064
0.0333335508
0.0338070277
0.0342886291
0.0347812770
0.0352885237
0.0358140863
0.0363597508
0.0369270561
0.0375181705
0.0381358922
0.0387836498
0.0394655018
0.0401861368
0.0409508735
0.0417656607
0.0426370775
0.0435723326
0.0445792654
0.0456663449
0.0467634626
0.0477930553
0.0489307525
0.0503421745
0.0521735722
0.0545518277
0.0575844539
0.0613595946
0.0659460246
0.0713931496
0.0777310063
0.0849709813
0.0931093030
0.1021243591
0.1119751703
0.1226013883
0.1339232958
0.1458418064
0.1582384593
0.1709752633
0.1838946684
0.1968197449
0.2095541940
0.2218823479
0.2335691697
0.2443602533
0.2539818236
0.2621407366
0.2685244790
0.2728011685
0.2746195539
0.2736090148
0.2693795616
0.2616823618
0.2514840912
0.2393973332
0.2258532779
0.2112525756
0.1959673896
0.1803426761
0.1646961866
0.1493184681
0.1344728635
0.1203955106
0.1072953432
0.0953540902
0.0845803259
0.0748543780
0.0663881571
0.0592890194
0.0535430900
0.0490152633
0.0454492027
0.0424673406
0.0395708784
0.0361397868
0.0314328053
0.0245874426
0.0146027650
-0.0064280646
-0.0382099257
-0.0724950116
-0.1021452260
-0.1211333699
-0.1245439543
-0.1085732028
-0.0705290514
-0.0088311485
0.0769891481
0.1862889217
0.3173137671
0.4671975841
0.6319625600
0.7981431388
0.9320915423
1.0103801231
1.0203602244
0.9600713931
0.8382413800
0.6738007597
0.4892104027
0.3058694152
0.1404680315
0.0043638494
-0.0964181695
-0.1611856897
-0.1910076175
-0.1916141810
-0.1722507768
-0.1408087107
-0.1038251908
-0.0664833279
-0.0326121354
-0.0046865290
0.0161726729
0.0305933666
0.0405610391
0.0473083124
0.0518772705
0.0551423877
0.0578105279
0.0604209455
0.0633452845
0.0667875791
0.0707842535
0.0752041220
0.0797898307
0.0846920131
0.0900364224
0.0958656915
0.1022157325
0.1091165950
0.1165980741
0.1246861910
0.1334002617
0.1427528811
0.1527499237
0.1633905434
0.1746671721
0.1865654035
0.1991131781
0.2124721322
0.2265027302
0.2410319213
0.2558936105
0.2709286578
0.2859848789
0.3009170447
0.3155868819
0.3298630721
0.3436212528
0.3567440165
0.3691209114
0.3806484411
0.3912300645
0.4007761959
0.4092035822
0.4164309157
0.4223814298
0.4269852981
0.4301796492
0.4319085674
0.4321230923
0.4307812190
0.4278478979
0.4232950350
0.4170862645
0.4092289207
0.3998993397
0.3892795591
0.3775440680
0.3648598073
0.3513861694
0.3372749987
0.3226705912
0.3077096946
0.2925215083
0.2772276835
0.2619423230
0.2467719815
0.2318156651
0.2171649413
0.2029047679
0.1891130327
0.1758600791
0.1632087022
0.1512141486
0.1399241169
0.1293787575
0.1196107553
0.1106472343
0.1025248215
0.0952100380
0.0886498170
0.0827928225
0.0775894502
0.0729918273
0.0689538121
0.0654309943
0.0623806953
0.0597619674
0.0575355948
0.0556640925
0.0541117075
0.0528444176
0.0518299325
0.0510378944
0.0504415296
0.0500167919
0.0497413764
0.0495947093
0.0495579484
0.0496139829
0.0497474331
0.0499446510
0.0501937198
0.0504844542
0.0508084000
0.0511588348
0.0515307673
0.0519209375
0.0523278171
0.0527516089
0.0531942472
0.0536593977
0.0541524574
0.0546805547
0.0552526761
0.0558742137
0.0565393515
0.0572419887
0.0579768701
0.0587373400
0.0595164218
0.0603082223
0.0611079477
0.0619119038
0.0627174959
0.0635232288
0.0643286791
0.0651344437
0.0659422044
0.0667547430
0.0675759404
0.0684107774
0.0692653342
0.0701467905
0.0710634256
0.0720246185
0.0730408474
0.0741236903
0.0752858247
0.0765410277
0.0779041757
0.0793884906
0.0809667821
0.0827301095
0.0848079117
0.0873204274
0.0903775081
0.0940786025
0.0985127561
0.1037586112
0.1098844071
0.1169479801
0.1249967630
0.1340677860
0.1441876758
0.1553726562
0.1676285478
0.1809507682
0.1954148558
0.2108893327
0.2268968913
0.2429897987
0.2587553603
0.2738159206
0.2878288624
0.3004866073
0.3115166156
0.3206813861
0.3277783765
0.3326391785
0.3351298496
0.3351514773
0.3326401876
