ECG
1.0819436318969788
1.0307054078743894
0.8975714294258927
0.7070322043523505
0.48535370321200844
0.25901786059570425
0.053957847322874765
-0.11436544734391973
-0.24019975470549185
-0.3215882616519958
-0.36026067830426467
-0.36163323801381175
-0.33480869736282903
-0.29153511953074246
-0.24114701426799437
-0.19087915094809896
-0.14594169865125858
-0.10949227438175428
-0.08263594306794575
-0.06442521756227075
-0.05186005864124599
-0.04179572091394449
-0.03368425016118104
-0.026763830722877545
-0.02041794907940464
-0.0141768268093753
-0.007714516321879854
-0.0008370118396188106
0.00650765553175911
0.014225747005229626
0.02230805467998885
0.03088475499057937
0.040018007091322694
0.04975953229893268
0.06015061409251553
0.07122209811356972
0.08299439216598631
0.09547746621604844
0.10867085239243202
0.1225636449862049
0.13713450045082748
0.15235163740215263
0.16817283661842536
0.18458898509378568
0.20168665880212325
0.2192778142577522
0.23714788420148364
0.2550899317672577
0.2729046504821424
0.29040036426633387
0.30739302743315666
0.3237078432407998
0.3391884902124255
0.35369078432947415
0.3670781898103392
0.3792218012665426
0.3900003437027343
0.39930017251669264
0.40701527349932376
0.4130472628346629
0.4173053870998725
0.41970652326524477
0.4201751786941982
0.418643491143281
0.41505122876216916
0.40933438464114813
0.4012699992955732
0.39099636810417115
0.3787822145188888
0.36488626706759825
0.34955725935409604
0.33303393005810356
0.3155450229352673
0.2973092868171584
0.2785354756112726
0.25942234830103067
0.24015590274468088
0.22088879044169085
0.20175194490623105
0.18286621646031995
0.16434246050190057
0.14628153750484102
0.12877431301893372
0.11190165766989671
0.09573444715937193
0.0803335622649271
0.06574988884005396
0.05202431781416983
0.03918774519261629
0.02726107205665964
0.016255204563491762
0.006171053946228654
-0.003000463486088435
-0.01127717775972862
-0.01869317746321047
-0.025330454219045624
-0.0312756823410903
-0.036612940094116586
-0.04142370969381257
-0.045786877306782464
-0.04977873305054646
-0.05347085598189515
-0.05690840491373347
-0.06011873589524712
-0.06312633883324875
-0.06595310758546674
-0.0686183399605457
-0.07113873771804592
-0.07352840656844387
-0.07579885617313212
-0.07795900014441919
-0.0800151560455295
-0.08197104539060339
-0.08382779364469745
-0.08558393022378415
-0.08723538849475194
-0.08877550577540527
-0.09019502333446468
-0.09148208639156659
-0.09262224411726344
-0.09359707286916454
-0.09437662611002703
-0.09494822006600956
-0.0953025721257804
-0.09542897868004312
-0.09531531512153668
-0.09494931207563655
-0.0943364769039685
-0.09349572653075583
-0.09244494139771134
-0.09120058094858319
-0.08977768362915484
-0.0881898668872453
-0.0864493271727089
-0.0845668399374356
-0.08255175963535061
-0.08041201972241445
-0.07815413265662333
-0.07578318989800886
-0.07330286190863795
-0.07071539815261298
-0.06802162709607172
-0.06522095620718739
-0.06231137195616876
-0.059289439815259776
-0.0561503042587402
-0.05288771934952255
-0.04953568825400431
-0.04603119432760494
-0.042237081974146995
-0.03802622896791376
-0.03328103167476593
-0.027883549768050887
-0.02171745584342237
-0.014676510533011798
-0.00666450783941068
0.0024047248643287167
0.01260732683469367
0.024009403957710937
0.03666702874894689
0.05062624035350741
0.06592304454603784
0.08260279677233434
0.10079259165238272
0.12006212624207374
0.13987239425159365
0.15971713115204578
0.17912281417545206
0.1976486623147514
0.21488663632380076
0.23046143871737557
0.24403051377116763
0.25528404752178774
0.263944967766764
0.26976894406454244
0.27254438773448625
0.27209240176420935
0.26826525967302395
0.26092463467977156
0.25022418280324543
0.2367944103801658
0.22124796403122712
0.20414973506237916
0.1860168594648255
0.16731871791502498
0.14847693577469082
0.12986538309079085
0.11181017459554735
0.09458966970643755
0.07843447252619291
0.06352743184279973
0.05000364112949894
0.037950438544785775
0.027407406932410557
0.018366373821377714
0.010763657275022964
0.0044182366991480666
-0.0009287638605116853
-0.005707304425066723
-0.010537797803406135
-0.01623110959219691
-0.023788606775954062
-0.03440445815650589
-0.04946564197598075
-0.07051207820323359
-0.09735954162847048
-0.1267723326012075
-0.15426725651513037
-0.1742543386635361
-0.1800368242393333
-0.16381117833504247
-0.1171479920515564
-0.03485126028531166
0.0885058642998767
0.25231180470653114
0.4485033263278357
0.661565536947634
0.8685318867404315
1.0392250274186363
1.144807043737304
1.1675892152582688
1.102415999089018
0.9572377679124285
0.7531108099867616
0.5238117487924681
0.3011292593418233
0.10477653764886882
-0.051736874892730766
-0.16151840353344915
-0.2243014316033429
-0.24576020859460673
-0.23313320970296147
-0.19894192050572757
-0.15441326046912315
-0.10823898743756272
-0.06657569763365703
-0.03304482565821313
-0.00873264449023431
0.008093953993480105
0.020160825387006826
0.028622672839196173
0.03447187342131316
0.03859104019051565
0.0417530221898552
0.044620904448276336
0.04774800798061722
0.05157788978760894
0.05644434285587622
0.06257139615793669
0.07007331465220167
0.07895459928297541
0.08910992221712405
0.10030998598604801
0.11220949426543825
0.12499149273554268
0.1388165651062672
0.15367026326206115
0.16952035069407528
0.1863168025001618
0.20399180538487408
0.22245975765946757
0.2416172692418984
0.26134316165682475
0.2814984680356058
0.30192643311630263
0.32245251324367763
0.3428843763691942
0.3630229949839423
0.38277819970922766
0.401878637391343
0.42000822829195544
0.4368736984889833
0.4522045798765953
0.4657532101652117
0.47729473288150265
0.48662709736838994
0.49357108509237013
0.49799303998663236
0.4998464486668506
0.49911889331471526
0.49582076192816815
0.48998524832140183
0.4816683521248603
0.4709488787852368
0.45792843956547696
0.44273145154477656
0.42546629810601827
0.40619417998305263
0.38522487075573153
0.36288214285690423
0.339476701232657
0.31530618334231664
0.2906551591584491
0.2657951311668586
0.24098453436658962
0.21646873626992463
0.19248003690238558
0.16923766880273317
0.14694779702296767
0.12580351912832782
0.10598486519729194
0.08765879690146267
0.07095861770845638
0.05593024546941616
0.042587988476796707
0.03093261967012395
0.020951844502162156
0.012620300938914697
0.005921527230866502
0.0007972525932178759
-0.002873986477465229
-0.0052118320597928786
-0.006333579037726245
-0.006354175100578438
-0.005386220743013023
-0.003539969265044754
-0.000923326772040052
0.0023581478252840196
0.006201242810858529
0.010505093663264374
0.015171183055729804
0.02010334085613303
0.02520774412700069
0.030392917125508165
0.03556973130347975
0.04065140530738878
0.045553504978356724
0.05020447397819274
0.05458310117927644
0.05868419030940354
0.06250489327999526
0.06604470919712199
0.06930548436150279
0.07229141243243559
0.07501763649286211
0.077503241724619
0.07976086075400715
0.08180385901769135
0.08364633476270186
0.08530311904643303
0.0867897757366439
0.08812260151145823
0.08931862585936443
0.09039561107921548
0.09137205228022918
0.0922671773819877
0.09310094711443787
0.09389405501789129
0.09466792744302434
0.09544472355087764
0.0962473353128567
0.09709938751073174
0.09802089545519443
0.09900773039750305
0.10005136610581158
0.10114635737224834
0.10228802280680252
0.10346643344180104
0.10466977851967485
0.10593804751323864
0.10732172310133944
0.1088772880890115
0.11066722540747681
0.1127600181141446
0.11523014939261189
0.11815810255266301
0.12163036103026971
0.12573940838759118
0.13058372831297463
0.13626780462095403
0.14290212125225138
0.15060316227377585
0.15949341187862415
0.1697013543860809
0.18148513358142448
0.1948912499020788
0.20952747958811235
0.22500060003088992
0.24094330405774006
0.25700093288164527
0.27282053155913827
0.2880507944177311
0.30234206505591676
0.31534633634316783
0.32671725041993765
0.33611009869765895
0.34318182185874574
0.3475910098565913
0.3489979019155694
0.3470643865310344
0.34145232795709934
0.3319238465098758
0.3189947111111233
0.3033598765528639
0.28566727279249005
0.2665178049527641
0.24646535332181904
0.22601677335315812
0.20563189566565473
0.18572352604355277
0.1666574454364664
0.14875240995937983
0.13227781399278574
0.11743308243075168
0.10435299489521524
0.09311852988383304
0.08376314166156937
0.07627325965875784
0.07102610317146868
0.06960030492516806
0.06976587303335721
0.06920908333432342
0.06617383969784707
0.05946167402520293
0.04843174624915852
0.03300084433397604
0.013643384275410474
-0.008608589899286874
-0.03216540613137655
-0.054879764330620646
-0.07404673681386889
-0.08503137076717711
-0.07513305546029314
-0.03270446668031193
0.04914112540993726
0.17252985627188783
0.33482726699123927
0.5286396109789444
0.7418551044344653
0.9546701264740328
1.1282789169394125
1.2307249249028827
1.2446306808814325
1.1671977968367657
1.0101924672420506
0.8001408608940981
0.5725324293805207
0.3566578676438234
0.17319023692778845
0.03418496477747597
-0.05666264020567727
-0.09747681762805198
-0.09869678934754825
-0.07381942867385577
-0.03415159225311898
0.011189879932061636
0.05527816456263082
0.09337645498307733
0.12293796120143433
0.14360590988927993
0.15721321077301023
0.1667896987271399
0.1737547241980037
0.17899770744271964
0.1832637978622353
0.18717372557986045
0.19121741080778748
0.19575201373620935
0.20100193453332021
0.2070588133453155
0.2138815302963916
0.2212962054887459
0.2291576147987336
0.23768975089397656
0.24694852886281088
0.256962933280243
0.26774675114444596
0.2792985718767598
0.2916017873216915
0.3046245917469148
0.31831998184327137
0.3326257567247685
0.3474645179285816
0.36278501369154526
0.37862375223378564
0.3947446794206884
0.4108872986687094
0.4268021913851856
0.4422662565706966
0.4570837828802892
0.4710703516600768
0.4840520115323565
0.4958652783955996
0.50635713542446
0.5153850330697696
0.5228168890585396
0.5285310883939616
0.5324164833554057
0.5343723934984219
0.5343086056547389
0.5321453739322657
0.5278134197150897
0.5212539316634786
0.5123670358505799
0.5009100133409776
0.4871292759635772
0.4713366026106713
0.45383099316282427
0.4348986684888705
0.4148130704459153
0.39383486187933414
0.3722119266227742
0.35017906414068195
0.32794604001498107
0.3056932671716873
0.2835830279529367
0.26176239482926633
0.24036563266859962
0.2195142273271311
0.19931688564932534
0.17986953546791837
0.1612553256039163
0.14354462586659616
0.12679502705350548
0.11105134095046287
0.09634560033155753
0.08269705895914896
0.07011219158386818
0.05858469394461558
0.048095482768563735
0.038614582939334875
0.030114851036392012
0.022518998504069958
0.015739343078831167
0.009691441673005015
0.00429409037478759
-0.0005306755517582237
-0.004857413484992391
-0.008745823760740054
-0.012233422218282067
-0.015352741078016534
-0.01813307338447466
-0.02060047300632091
-0.02277775463635312
-0.024684493791502143
-0.02633702681283233
-0.02774845086554105
-0.028928623938959133
-0.02988416484655053
-0.030618453225912584
-0.031131629538775574
-0.03142059507100327
-0.03147901193259291
-0.03129730305767443
-0.03086265220451126
-0.030159003955500446
-0.029167925035290657
-0.027876963374156453
-0.026276950552720474
-0.024357468619397575
-0.022106807816836015
-0.019511966581916798
-0.016558766076853824
-0.013248054305929853
-0.009612499606890826
-0.005687530165258636
-0.0015073391248314819
0.0028951681147561456
0.0074883779596382205
0.012241968621713444
0.017126910118648943
0.022115464273878505
0.027181184716602372
0.03229891688178807
0.03744479801016979
0.04259625714824878
0.0477320151482928
0.052832084668337
0.057858241355260034
0.06282367482596694
0.0677991885662892
0.07285676723205456
0.07806945948715337
0.08351137800353743
0.08925769946122183
0.09538466454828305
0.1019695779608603
0.10909084958046644
0.11684516026608008
0.1253740057791201
0.13482679676441187
0.14535400787484282
0.15710934816300834
0.17033926787618317
0.1848738319108585
0.20034064818061198
0.21636517776128553
0.23257073489098629
0.2485784869700859
0.26400745456122066
0.27847451138929236
0.29159438434146684
0.30297965346717537
0.31224075197811346
0.3189859662482422
0.32282143581378653
0.3233511533732372
0.32017002796922667
0.3130433895465404
0.30246802661015926
0.2890479415325451
0.27335999362172214
0.2559538953694231
0.23734057672831582
0.21796644448399838
0.1982436360175587
0.17855838068474153
0.15927002753163924
0.14071078253990707
0.1231857086267619
0.10697272564498307
0.09232261038291235
0.0794589965644539
0.0683556070529551
0.058749424403480924
0.0507683226888119
0.044315858789946906
0.039049080500298435
0.03437852652569218
0.029468226484367643
0.02323570090697753
0.014351961236588048
0.001241509828679023
-0.017702007826236384
-0.042762787366937255
-0.07223092960776702
-0.10237188429471844
-0.12742560593422395
-0.1395991391106835
-0.12935849086349585
-0.08941576211859645
-0.009574475257164898
0.11508514664688245
0.28162854345409255
0.47926681795947496
0.6893567358925029
0.8857898905007596
1.0336829102097984
1.1025383696495448
1.0785791070303532
0.9650685212645336
0.7818104610358435
0.5584169153665812
0.3275670757772287
0.11508795014341569
-0.06149211407597365
-0.1929205106380229
-0.27540390132996845
-0.3140817474755384
-0.3178608692362773
-0.2956484275991308
-0.2563519243764452
-0.20887920220596848
-0.16214378487017472
-0.12424953518795376
-0.09612764661865197
-0.07587979072118733
-0.06176206594991542
-0.0521127585591382
-0.045352343154705155
-0.039983482694012834
-0.03472449646166718
-0.029214544321750194
-0.023328146484570184
-0.016946301327653925
-0.009969264766943712
-0.0023165502567976002
0.0060730712100108405
0.015241571102291848
0.025211663350440356
0.03598687361849079
0.047572017700470856
0.05999712095332201
0.07328049236971136
0.08742406060141955
0.10241337395934043
0.1182176004134819
0.13478952759296456
0.15206733170451814
0.16998458902195523
0.1884633088284263
0.20740913438872735
0.2267113286267676
0.2462427741255698
0.26585997312726994
0.2854030475331177
0.3046957389034762
0.3235454084578219
0.3417430370747448
0.3590632252919481
0.37526419330624894
0.39009702332006935
0.4034491656681415
0.41515325409158105
0.4250232941349775
0.43290192619182133
0.4386604255045041
0.4421987021643193
0.4434453011114616
0.4423574021350265
0.43892081987301224
0.43315000381231705
0.4250880382887409
0.4148078522095176
0.40242145074753743
0.38807479288940055
0.3719417062093727
0.35422359062231296
0.3351504087445897
0.3149807580414729
0.2939695920686342
0.2722403935832462
0.25002875011675385
0.22757457106664944
0.20509930918191355
0.18280596056301474
0.16087906466191015
0.1394847042820458
0.11877050557835507
0.09886563805726035
0.07988081457667179
0.06190829134598823
0.04502186792609702
0.029276887229373327
0.014710235519680967
0.0013403424123720614
-0.010832819125713218
-0.02182698313709939
-0.03161760953433355
-0.040235992248817444
-0.04776500167155186
-0.05428489509169375
-0.05987315854653778
-0.06460450682151664
-0.06855088345020079
-0.07178146071429839
-0.0743626396436558
-0.07635805001625684
-0.07782855035822342
-0.07883222794381523
-0.0794243987954297
-0.07965760768360228
-0.0795816281270061
-0.07924346239245234
-0.07868734149488982
-0.07795472519740537
-0.07708430201122346
-0.07611198919570672
-0.07507093275835522
-0.07399150745480727
-0.07290131450676066
-0.07181565518814512
-0.07074966545510795
-0.06972643355123115
-0.06876070376521097
-0.06786041968797654
-0.06703160367429369
-0.0662770457674815
-0.06559798110200561
-0.06499452058802051
-0.06446565091136928
-0.0640092345335839
-0.0636220096918853
-0.06329959039918298
-0.0630364664440755
-0.06282600339084991
-0.06266044257948244
-0.06253090112563789
-0.062427371920669925
-0.06233872363162102
-0.062252700701222435
-0.06215592334789443
-0.06203388756574578
-0.061870965124574226
-0.06165040356986637
-0.06135432622279753
-0.060963732180231885
-0.06045862324281087
-0.059991837684390495
-0.059540942546819936
-0.05887019531517787
-0.057766344086974175
-0.0560385334283945
-0.05351830437429986
-0.05005959442822672
-0.04553873756238725
-0.03985446421766922
-0.03292790130363557
-0.024702572198525147
-0.015144396749252168
-0.004241691271406334
0.007994831450746849
0.021532062164266667
0.036314495147536804
0.052264228210265155
0.06928096269348441
0.08724200346955155
0.10595732165604306
0.1248852113372132
0.1433930887449969
0.16090430251159318
0.17689580173938813
0.19089813600095565
0.2024955012109464
0.2113271856292051
0.2170878624772082
0.2195255380250951
0.21843747540362685
0.21374685519069622
0.2057262115990834
0.19473886272761343
0.1811735694333773
0.1654445353317301
0.14799140679629327
0.12927927295895317
0.10979866570986141
0.09006555969743524
0.07062137232835668
0.05193858648573538
0.034247955403929685
0.017839390062468555
0.002923984437586921
-0.010375109752103217
-0.02202268304561359
-0.03207146823957847
-0.04066214038825541
-0.04802331680352475
-0.05447155705489126
-0.06041130244157018
-0.06633173091287953
-0.0724311050301106
-0.07971840896861689
-0.09147488246130828
-0.10952236048257394
-0.13400421646925756
-0.1633853623206441
-0.19445224839846792
-0.22231286352691035
-0.24074019583113243
-0.24460869320299733
-0.2202633837274336
-0.1568199308044768
-0.049493198259549794
0.1004027496565369
0.2854546482675859
0.4921500324720121
0.7008772367428436
0.8843713822596195
1.0076006649784373
1.0466466624936535
0.9937344216646181
0.8572342403931895
0.6611693731529579
0.4354232807357531
0.2092576018126648
0.005615298383063502
-0.16033391758488671
-0.28118845950132537
-0.35450934241959614
-0.38300277659417004
-0.3786431917096998
-0.3521846429766232
-0.31281598761848634
-0.2681608848719459
-0.2242777959867683
-0.1856599842258303
-0.15523551486511702
-0.13424302981673716
-0.12038591439026025
-0.11134434472916703
-0.10555384910450769
-0.10171697841954232
-0.09880330620974533
-0.09604942864280068
-0.09295896451860561
-0.08930255526926913
-0.08511786495911199
-0.080698281910526
-0.0760084618263126
-0.07084313543338193
-0.06512345016690896
-0.05877799635854845
-0.05174532200234483
-0.043973932754733935
-0.0354222919345402
-0.02605882052297878
-0.015861897163655492
-0.0048198581625656
0.00706900251190553
0.019796433228982648
0.033345553859923945
0.047893256382123155
0.06341851432330509
0.07970001255389242
0.09652577856875516
0.11369318248721014
0.1310089370530205
0.14828909763439585
0.16535906222399283
0.18205357143891449
0.19821670852071147
0.21370189933537947
0.22837191237336218
0.24209885262305986
0.25475795364637477
0.2662158781226798
0.27634542199074413
0.2850268653196014
0.2921439836021563
0.29758874795111606
0.3012624721036348
0.3030758124213128
0.30294876789019787
0.30081068012078327
0.29660004784402727
0.29022734651124515
0.2818047566030202
0.27155195205863114
0.25967991535173196
0.24639093749035157
0.23187861801689322
0.21632786500813525
0.19991489507523094
0.1828072333637078
0.16516371355346887
0.14713447785879102
0.12886097702832727
0.11047597034510417
0.09210352576690642
0.07386464572345851
0.055892203774156136
0.038315078575176464
0.021253457317072625
0.004818835724772257
-0.010885981942422553
-0.025766882890834043
-0.03973844579241134
-0.05271983625514982
-0.06466250558178974
-0.07560873334345636
-0.08560796138597054
-0.09470788317099103
-0.10295444377601623
-0.11039183989438164
-0.11706251983526217
-0.1230071835236702
-0.128264782500458
-0.13287251992231544
-0.13686585056176997
-0.14027848080718935
-0.14314236866277844
-0.1454877237485812
-0.14734300730047944
-0.14873493217019432
-0.14969186636410983
-0.15025625830130243
-0.150473406082827
-0.15038641260568278
-0.15003276074710678
-0.14944620068786543
-0.14865871809692588
-0.14770055025909423
-0.1466001860750144
-0.1453843660611693
-0.14407807404037354
-0.1426780504981833
-0.14117931167274145
-0.1395993193028414
-0.13795429590525957
-0.136259224774756
-0.13452784998407344
-0.13277267638393858
-0.1310049696030608
-0.1292347560481331
-0.12747082290383177
-0.12572071813281596
-0.12399075047572865
-0.12228598945119554
-0.12061026535582615
-0.11896550671105287
-0.11734846832717169
-0.11575321910763682
-0.11417258649776955
-0.1125981587208736
-0.11102028477823689
-0.1094280744491297
-0.1078093982908062
-0.10615088763850364
-0.10443793460544244
-0.10265469208282649
-0.10078407373984262
-0.09880775402366146
-0.09670616815943628
-0.09449878620021399
-0.09214578153998125
-0.08948458128843605
-0.08636221751126592
-0.0826369639635784
-0.07817833608990032
-0.07286709102417843
-0.06659522758977918
-0.059265986299487414
-0.05079384935551133
-0.04110454064947247
-0.030134604903683818
-0.01782860896717879
-0.004140874513849214
0.010962988511948654
0.027504266761847942
0.04559481058168861
0.06516540250982614
0.08558779644987512
0.1062593969015593
0.1266256185534718
0.14617988628304024
0.16446363515656126
0.18106631042916746
0.19562536754485807
0.20782627213647117
0.21740250002570763
0.22413553722311233
0.2278548799280875
0.2284380345288843
0.2258105176026062
0.21994585591521137
0.21088280631413772
0.19901098360497851
0.1849680579459259
0.16935087979908145
0.15270554178883208
0.1355195813286891
0.11822565625177034
0.10120647268480601
0.08479484489736944
0.06927369530184224
0.05487605445344852
0.041785061050222325
0.030133961933037273
0.020006112085580244
0.01187877945835572
0.006339038377414369
0.002253225628879793
-0.0014563141073639582
-0.005720839268788365
-0.011325211410230171
-0.018907895203879893
-0.028960958439295574
-0.041830072023386636
-0.057714509980433586
-0.07666714945206315
-0.09859447069727875
-0.12325655709242514
-0.1502670951312279
-0.17765513216756051
-0.19479309395950173
-0.18999056121386598
-0.1546381994566567
-0.08322975563169054
0.02663835859997573
0.17426845901978272
0.35585990068665335
0.5651103718194844
0.7795803226154956
0.9597911669952485
1.0764134353686947
1.11181562170684
1.0600641835419309
0.9269235419674001
0.7305340782509223
0.5025517257470131
0.2734367893961515
0.06627769693305471
-0.103244096087874
-0.226854106292195
-0.3036848224857253
-0.33701372434794735
-0.3333149990829865
-0.30551211452914084
-0.26451325196868597
-0.21902554498077803
-0.1755750843548065
-0.13850440340484738
-0.10995448227662748
-0.08986411037268038
-0.0758926387354451
-0.06555978147853928
-0.05790051552047751
-0.05209720818596353
-0.047434599311855195
-0.04329980124717355
-0.039182298853095814
-0.0346739495029616
-0.029468983082266115
-0.0233640019886685
-0.016257981131981774
-0.008152267934184148
0.0008494176705931243
0.01054098323605221
0.02066970098233824
0.03144736604639274
0.04297702540211193
0.05527092926468444
0.06832440817507732
0.0821158730000133
0.09660750133889971
0.1117629691649401
0.1275490429382216
0.1439165749604081
0.16079938048885462
0.17811338343388783
0.19575710810764432
0.2136121557513915
0.23154320793218053
0.24939802654281382
0.26705710018593487
0.2844187962125802
0.3012380365764695
0.31728494638189925
0.3323513587506752
0.3462508148220821
0.35881856375291254
0.3699115627174402
0.37940847690744334
0.38720967953218516
0.39323725181843033
0.3974349830104309
0.3997683703699375
0.4002246191761917
0.3988126427259296
0.39556259716459025
0.3905069072670223
0.38365647632886263
0.37492299197261425
0.36447171944489726
0.352523053484452
0.3392866544449589
0.32496144829501106
0.309735626618145
0.2937866466128084
0.2772812310923932
0.2603753684852009
0.24321431283447909
0.225932583798384
0.2086539666500179
0.19149151227739256
0.17454753718346402
0.15791362348609994
0.14167061891811056
0.12588863682721904
0.11062705617608992
0.09593452154230171
0.08184894311837343
0.06839749671173884
0.055602169953064606
0.0434989488065195
0.03203517879838192
0.021175067151824465
0.010888831482454793
0.0011490457320405337
-0.008069408601952129
-0.016789351590970714
-0.025031248821121177
-0.03281320796302625
-0.040150978771838416
-0.04705795308722792
-0.05354516483339364
-0.059621290019053155
-0.06529264673745208
-0.0705631951663551
-0.07543453756805463
-0.07990591828936333
-0.08397422376161798
-0.08763398250068077
-0.09087736510693457
-0.09369418426528836
-0.09607189474517211
-0.0979955934005417
-0.09944801916987442
-0.10040955307617264
-0.10085834369349317
-0.10078940401212408
-0.10023512069526622
-0.09923044104071474
-0.09780795443078802
-0.09599789233232855
-0.09382698719441754
-0.09130686299788662
-0.0884704277305427
-0.08535677924059937
-0.08200309413095586
-0.0784446277592033
-0.07471471423761786
-0.07084476643316766
-0.06686427596750613
-0.06280081321697863
-0.058680027312615776
-0.05452564614013926
-0.050359476339958714
-0.04620140330717132
-0.04206939119156432
-0.03797948289761176
-0.03394580008447848
-0.02998054316601565
-0.02609399131076498
-0.022294487247607474
-0.01858131532803077
-0.014933340531369951
-0.01132454895675514
-0.007727004851598861
-0.004147860085241048
-0.0005067765933581478
0.0033638361235805722
0.007620051097459987
0.012406313672192627
0.01785544150371008
0.024088624559971232
0.031215425120952975
0.03933377777866168
0.048529989437119433
0.05887873931237951
0.07044307893250917
0.08327443213760934
0.09741259507979258
0.11288573622320616
0.12981940431667907
0.14797290477195213
0.1667923617846501
0.18575450037500732
0.20436694498588975
0.2221682194465145
0.23872759979666347
0.25364477927696966
0.26655025196536936
0.277105411362461
0.2850025503914797
0.28996486139832006
0.29174643615151824
0.29013226584226265
0.2849382410843907
0.27593816115645886
0.263472780383241
0.24823652258634496
0.23087188572469783
0.2119691940529499
0.19206659812150345
0.17165007477648178
0.15115342715976174
0.1309582847089406
0.11139410315736895
0.09273816453411858
0.07521557716401323
0.058999275667599764
0.04421002096117442
0.030916400256759798
0.01913482706212448
0.008832449374605054
-6.36493243524397e-05
-0.007448912760743012
-0.013424587482006305
-0.019230753750575945
-0.02602061231623002
-0.034798676188293555
-0.04641879379598516
-0.061584136842234904
-0.08084720030366319
-0.10460980243060909
-0.1332415628906708
-0.16626442872641806
-0.19366736928468709
-0.20490988028966933
-0.1915387788001841
-0.14718820320969342
-0.06757961324632983
0.04947821002718585
0.20408916421340195
0.394269825580341
0.6138076615855215
0.8296474527088233
1.0052233750591728
1.1144194539354475
1.1415638322178474
1.0813958146459992
0.9392642188862546
0.7388145460503109
0.5159644069011154
0.29999462860759496
0.11229642800087626
-0.03362858842534743
-0.13216842451514213
-0.18370475340516065
-0.19101770094196358
-0.16749296388017026
-0.12544074041553963
-0.07494493011277632
-0.023863133905484238
0.02217334590376946
0.05975950564352206
0.08771664027335252
0.10709234338393375
0.12097765545700861
0.13145486307856516
0.13937560124404058
0.14552528891060323
0.15054443434874595
0.15492863514229577
0.15903676991129528
0.16313852320323416
0.16738187059937712
0.17176995342970217
0.17616794781828385
0.18066715156635116
0.1854694296768531
0.19068018682422866
0.19639188826286147
0.20268405982709503
0.20962328793121152
0.2172632195694575
0.22564456231601562
0.23479508432503465
0.2447296143305983
0.25545004164675705
0.26697227552697267
0.2794128682840573
0.2926385131470256
0.3064763598998572
0.32076055451527685
0.3353322391547923
0.3500395521686581
0.36473762809590726
0.3792885976643229
0.3935562405046602
0.4073641363942255
0.4205182799557215
0.43283145033046627
0.44412342284855544
0.45422096902883563
0.462957856578929
0.47017484939521187
0.4757197075628324
0.4794471873556958
0.4812190412364771
0.48090377110174254
0.47825209101601707
0.47326472634167915
0.4661475841433593
0.4570994798540902
0.4463121372752886
0.4339701885767774
0.42025117429676123
0.40532554334185195
0.3893566529870418
0.37250076887573325
0.3549070650197058
0.3367176237991505
0.3180674359626358
0.2990869175584443
0.27992877102286917
0.2607576172344623
0.24173130482340113
0.22300058852821555
0.20470733560205914
0.1869812994539472
0.16994427066467246
0.15371094818343708
0.13838893932782345
0.1240787597838216
0.1108725179164112
0.09879308895801114
0.0877901377236334
0.07781376902462357
0.0688160105946658
0.060750813089796504
0.053574050088392146
0.04724351809117992
0.041718936521228385
0.036961947723956
0.03293611696712356
0.02960693244083989
0.026941805257558536
0.024910069452079714
0.023482100507943707
0.0226162069168597
0.022261425968814405
0.022368404287573265
0.022889711419247276
0.023779839832293263
0.024995204917514297
0.026494144988058584
0.028236921279420464
0.030185717949440024
0.0323046420783034
0.03456225390308884
0.03694824903145088
0.03944700021961983
0.04204084903925244
0.044712733918409034
0.047446190141554156
0.05022534984955555
0.05303494203968477
0.055860292565617205
0.05868732413743215
0.0615025563216124
0.06429310554104428
0.06704668507501824
0.06975160505922819
0.07239685939374782
0.07497399140704461
0.07747706846877145
0.07990083663524737
0.08224063881919433
0.0844929000568838
0.08665832288516184
0.08873989397520049
0.09074128313275219
0.09267750253775656
0.09455882557298013
0.09639537811539026
0.09820807696599812
0.10002862984985984
0.10189953541607621
0.10387408323779168
0.10601635381219683
0.1084012185605249
0.11111433982805595
0.11425217088411178
0.1179219559220619
0.12224173005931689
0.12734031933733608
0.1333573407216184
0.14044320210171266
0.14875916462772665
0.15853429837583605
0.16989552458807086
0.18272414837317896
0.19686492603114258
0.21212966820839993
0.22829723989781947
0.24511356043872848
0.2622916035168824
0.2795113971644969
0.29642002376021487
0.31263162002913986
0.3277273770428031
0.3412555402191952
0.35273140932273583
0.36163733846430224
0.36742273610120496
0.3695034547725512
0.3675193334531954
0.36178200735224075
0.3527077315364938
0.34071137852652905
0.32620643829670387
0.3096050182751389
0.29131784334374256
0.2717543273157295
0.25132646503122275
0.23045083235325933
0.20954311512128904
0.1890176166285199
0.1692871752571767
0.15076097875355549
0.13384433486837716
0.11865630627487918
0.10493569262689481
0.09297242181729562
0.08288620736426221
0.07459462686819929
0.0678131220117494
0.0620549985597815
0.056631426359400924
0.050651439339939666
0.043021935512966986
0.03244767697227676
0.01742170399684574
-0.0034958940542877508
-0.02962452390073663
-0.05835413818073809
-0.08539410393451764
-0.10477320260433705
-0.1088397320038181
-0.08827216674571287
-0.0353873914014113
0.05683611412472669
0.1933655048795991
0.37086165899125595
0.5776595344440062
0.7937681690787141
0.9908706805924581
1.1355302104638203
1.2016453392340902
1.1767200399827276
1.0636377005082045
0.880665586822572
0.6606428927533181
0.4353232725520479
0.2285482240568213
0.05741129016779046
-0.06855841404338149
-0.14739620133381673
-0.18180116204670838
-0.1788734271510331
-0.1512830932121373
-0.10981656948042262
-0.06325886746960409
-0.01839356400854178
0.020006865779456706
0.04919399547160386
0.06879911484622973
0.08124583886806473
0.08863927535634576
0.09271285257839797
0.09487643101679108
0.09621299224001936
0.09747797778913335
0.09909928917774678
0.10117728789202957
0.10349173083665761
0.10607910752578908
0.10917500168741653
0.11285967072679702
0.11720562778304318
0.12227764172910999
0.12813273717180823
0.1348201944517914
0.14238154964356928
0.15085059455549316
0.1602533767297714
0.17060820805508725
0.18195992832842353
0.19429478996781055
0.20753095096571303
0.2215668810025178
0.23629053762494076
0.25158141913424154
0.2673105645862551
0.28334055379136
0.2995255073145059
0.3157110864752016
0.3317344933475037
0.34742447076004396
0.36260130229599713
0.37707681229311324
0.3906543658436871
0.40312886879458626
0.4142867677472247
0.42390605005758747
0.43177733477017605
0.43780955666835075
0.4419279751819183
0.44407540548582614
0.44421723638419586
0.442341430310329
0.4384585233267061
0.4326016251249828
0.42482641900911816
0.41520975189633347
0.40384578656923786
0.3908500341772718
0.37636057949906604
0.36053808094241624
0.34356505242126223
0.3256413646517962
0.3069871587509988
0.28784513932941924
0.2684762966337937
0.24901285869203868
0.22958287830369914
0.21034583642479823
0.1914445412516297
0.17300512822072267
0.15513706000887656
0.1379331265331272
0.12146944495077922
0.10580545965937545
0.09098394229672574
0.07703099174087913
0.06395603411015134
0.051751822763098615
0.040394438298540974
0.029843288555541726
0.020046111334335703
0.01095771172764256
0.0025232568341379824
-0.005308171835162207
-0.012520591092290815
-0.01915224835081325
-0.025246058578362762
-0.030841665054684143
-0.035975439371631494
-0.04068048143317059
-0.04498661945537505
-0.048920409966432044
-0.05250513780663573
-0.055760816128393814
-0.05870418639622091
-0.061348718386745174
-0.06370461018870216
-0.06577878820294046
-0.06757490714241614
-0.06909335003219813
-0.07033122820946364
-0.0712823813235019
-0.07193737733571084
-0.07228351251959961
-0.07229902344767666
-0.07197277071354727
-0.0713350337265727
-0.07042708440007328
-0.06928886230002111
-0.06795895284235381
-0.06647440591496567
-0.06486624669706458
-0.06315918045690977
-0.06137631782473136
-0.05953941528072928
-0.05766887515506943
-0.05578374562788308
-0.05390172072927006
-0.05203914033929403
-0.05021099018798674
-0.0484309018553474
-0.046711152771340976
-0.04506266621589698
-0.04349501131891513
-0.042016403060258625
-0.040633702269760236
-0.03935241562721613
-0.03817669566238993
-0.037109340755013445
-0.03615179513478427
-0.03530107345878643
-0.034583738981087755
-0.033930432073585495
-0.0331455470468645
-0.03204665156568873
-0.030465012515121785
-0.028245596000538713
-0.025247067347616805
-0.0213417911023404
-0.0164158310309965
-0.010368950120183896
-0.0031146105767980922
0.005420026171950386
0.015294099478553827
0.026553049475191597
0.03922861707374528
0.053338843965781854
0.06900362248312455
0.08614343413402917
0.10407770024400188
0.12216293169204678
0.13981629228839146
0.1565155987744544
0.17179932082287624
0.18526658103748841
0.19657553891883253
0.2054284594749629
0.21157856004140818
0.2148395878685658
0.21508594313804405
0.21225267343621368
0.2063329062155167
0.19737376239021925
0.18548363226277692
0.17104448621526822
0.15471694108833878
0.13711712031932372
0.11879819473583064
0.10025038255570867
0.08190094938708349
0.06411420822832278
0.04719151946806865
0.031371290885207355
0.016828977648899193
0.0036770823185476587
-0.008034845156170325
-0.018320207435330665
-0.02725535978874088
-0.03491710069957278
-0.04124602762924825
-0.046940848815246954
-0.05282468639806559
-0.059726100355973644
-0.06849454903139744
-0.08000074480586286
-0.09513665409998566
-0.11481549737348506
-0.1399717491251648
-0.17116941893310242
-0.2038528183925886
-0.23011319254872548
-0.2422597048097333
-0.23288670334400213
-0.19487372108009088
-0.12138547570669483
-0.005519505022881531
0.1557433354276448
0.3484946737682111
0.5540346849698412
0.7509956997088242
0.9153422043670596
1.0203708410317358
1.0369502832440887
0.9551668467490457
0.7998846135240373
0.5976794185180727
0.37354380567316414
0.15088911985349185
-0.048436990876583305
-0.20537232606162842
-0.3154770508652451
-0.3818870286365851
-0.4091505042087055
-0.40343496505865606
-0.37252925726166825
-0.3258435932710019
-0.27440955191790284
-0.2281755901495288
-0.1894345829797171
-0.15865087605313485
-0.13563568807814755
-0.11954565800781519
-0.1088828450398512
-0.10149472861665378
-0.09505574197922939
-0.08909309952575557
-0.08332921819113037
-0.07750283440205988
-0.07140645917772229
-0.06488637812977563
-0.057842479057418406
-0.0502236393173675
-0.04202722058162155
-0.03327736309923737
-0.023910471315409288
-0.013858854797377121
-0.003070550816873187
0.008491850684295314
0.020851207094261706
0.03401582313108307
0.04797945084275761
0.06272128960720424
0.07820598613228498
0.09438363445578428
0.11118977594542866
0.12854539929886374
0.1463569405436821
0.1645162830373923
0.18290075746745146
0.2013810720066268
0.21991636104907347
0.23830124074101264
0.2562826653895958
0.2736238381487369
0.29010421101914724
0.3055196242092467
0.31968823571573807
0.3324527350963216
0.34367265633769384
0.3532237822733195
0.36099814458345475
0.36690394698382156
0.3708637889751181
0.3728146165317095
0.37270953779905
0.37051790976937116
0.36622533828168535
0.3598336780217863
0.35130143154792065
0.3405684535645249
0.32786802795193176
0.31344369562530755
0.2975298615274195
0.2803517946286593
0.2621256279270153
0.2430583584481032
0.22334784724513496
0.20318281939895005
0.18274286401798234
0.16219843423829503
0.14171077031539414
0.12142607413573195
0.10147143368313599
0.08196383784174252
0.06301113952328177
0.04471205566711213
0.027156167240187927
0.01042391923709006
-0.005413379320003554
-0.020293555381288717
-0.034163571869363876
-0.04697952767920262
-0.05869671821652017
-0.06930465062879365
-0.07887630616225205
-0.0874866127932585
-0.09520818290097746
-0.10211131326738981
-0.10826398507727963
-0.11373186391824579
-0.1185782997806918
-0.12286432705783515
-0.12664866454569845
-0.12998771544311682
-0.13293556735173317
-0.13554396212707256
-0.1378573472279974
-0.13990737078353876
-0.1417220388237496
-0.14332704178149283
-0.1447457544924401
-0.14599923581952098
-0.1471060898694476
-0.14808225855080034
-0.14894131511510086
-0.14969451721668145
-0.15035080691268257
-0.15091681066305557
-0.15139683933056058
-0.1517928881807664
-0.1521046368820522
-0.15232944950560634
-0.15246237452542627
-0.15249614481831916
-0.15242117766390145
-0.15222557474459825
-0.151892126164992
-0.15132845850110224
-0.1505249445034539
-0.14951491716094886
-0.14832615511330724
-0.14698488154159378
-0.14552234314769702
-0.14396595277549773
-0.14233756137744985
-0.14065345801458043
-0.13892436985648954
-0.13715546218135027
-0.13534633837590931
-0.13349103993548467
-0.1315780464639693
-0.12959027567382808
-0.12750508338609984
-0.12529426353039486
-0.1229240481448977
-0.12035510737636577
-0.11754254948013017
-0.11443592082009263
-0.11097920586873042
-0.10711082720709252
-0.10276364552480283
-0.09786495962005429
-0.09233650639961713
-0.08609446087883159
-0.07904943618161378
-0.07110648371773018
-0.062166060619916357
-0.05212629523850941
-0.040880428500893996
-0.02831613944302106
-0.014155163966113792
0.001758633476950721
0.019129059377943236
0.03764820519995788
0.057002026420311214
0.0768699082369373
0.09692466426085133
0.11683253651618083
0.13625319544013254
0.15483973988302702
0.17223869710826406
0.1880900227923541
0.2020271010248903
0.21367674430857542
0.22265919355919617
0.22858811810564422
0.23107061568990175
0.22970721246705017
0.22420707495393838
0.21493031843057073
0.20244195921249963
0.18728074335248038
0.16997860186875524
0.1510417749446965
0.13094398876722985
0.11012645547485839
0.08899787315769278
0.06793442585742182
0.04727978356734254
0.027345102232329284
0.008409023748863338
-0.009282324034994988
-0.025515327319578382
-0.0401088863536403
-0.052960401217416686
-0.0643251138885301
-0.07413477987146055
-0.08241520618857195
-0.08941072571190928
-0.09558419716321233
-0.10161700511390304
-0.108409059985096
-0.11707879804758903
-0.1289631814218745
-0.14564443156953644
-0.16810704851581598
-0.19473335834922828
-0.22244064317970758
-0.24684257196811407
-0.2622327382066104
-0.2615846473896131
-0.23655171701381789
-0.17887398246020295
-0.08369150480227111
0.052923452419853786
0.22820997825902622
0.43231929542728814
0.6483147602961568
0.8521718628962908
1.012778226917815
1.0976891181964357
1.0957086220108212
1.0090659382001925
0.8496720490134133
0.639129669328767
0.4087270487117189
0.18953490208947488
-0.002315646795046908
-0.15570509944183064
-0.2649464663459045
-0.32978526699760513
-0.35530540387379017
-0.34818106703939156
-0.31915583762103433
-0.279157244759394
-0.23677147866896261
-0.1982433906379855
-0.16747649302853548
-0.1460329592764468
-0.13313173278665702
-0.12625973022920023
-0.12370638183820237
-0.12421881529526807
-0.1266999479923846
-0.13020848703192
-0.13395892922662977
-0.13732156109964708
-0.13982245888449849
-0.14114348852508393
-0.14112230567569245
-0.13975235570099054
-0.13718287367603857
-0.1336296234018758
-0.1287627579156756
-0.1223883301722297
-0.114390782470399
-0.10467690538859004
-0.09324630330251037
-0.08015418623310665
-0.06546971951685672
-0.04927563784018531
-0.031668245239491605
-0.012757411788806947
0.007334419848712387
0.02847362732480778
0.0505133696340894
0.0732932364212232
0.09669502859804432
0.12061568317861697
0.1447535836221607
0.16881048335731197
0.1925010830708113
0.21555303070753618
0.23770692147047487
0.258716297820747
0.27834764947758106
0.29638041341833943
0.31260697387849756
0.32683266235166025
0.3388757575895441
0.348567485601996
0.3557573221050986
0.360371109976205
0.36238941628194427
0.3618064913478337
0.35862953275751025
0.3528786853527323
0.3444807577561185
0.3334628249664909
0.3201128877085896
0.30471237321747047
0.28753366479653114
0.26884010181748696
0.24888597972039478
0.2279165500136243
0.20616802027389225
0.18386755414622782
0.16123327134400547
0.13847424764891295
0.11579051491098055
0.09337306104855911
0.07140383004832258
0.050055721965299664
0.029492592922821415
0.009869255112558178
-0.008668523205498463
-0.025986568571828655
-0.042001353476481984
-0.05667227186912491
-0.06996874714204639
-0.08186924661918774
-0.09236128155618027
-0.10143821841302487
-0.10911486447270004
-0.11548385521460973
-0.12064573536653964
-0.12469871452283125
-0.12773866462604605
-0.12985911996695182
-0.13115127718454084
-0.13170399526601412
-0.13160379554679213
-0.1309348617105056
-0.1297790397890042
-0.12821583816235216
-0.1263224275588266
-0.12417364105492064
-0.12184197407534295
-0.11939758439301829
-0.11690829212908342
-0.11443957975289204
-0.11205361296943149
-0.1097875224222206
-0.10765330446250843
-0.10565961883089944
-0.10381278761621256
-0.10211679525548242
-0.10057328853395762
-0.09918157658510257
-0.09793863089059698
-0.09683908528033469
-0.09587523593242418
-0.09503704137319142
-0.09431212247717455
-0.09368576246712866
-0.09314090691402183
-0.09265816373703994
-0.09218985847391122
-0.09167176335504024
-0.09112732093646649
-0.0905788633430978
-0.09004332943047008
-0.08953226478474229
-0.08905182172270107
-0.088602759291757
-0.08818044326995028
-0.08777505796565517
-0.08737881317133522
-0.08698771600979498
-0.08659295160663986
-0.0861803118180994
-0.08573019523102988
-0.08521760716291317
-0.08461207568076282
-0.08387594809260984
-0.08296446750457916
-0.08182741509293989
-0.08040917876458871
-0.07864875315704661
-0.07647973963846107
-0.07383034630760395
-0.07062338799387709
-0.06677628625730445
-0.06220106938853727
-0.056804372408850154
-0.050487437070150555
-0.043146111854965676
-0.03467085197644998
-0.024946719378379847
-0.01385338273517049
-0.0012649978593413293
0.012934279963598156
0.028650406352698055
0.04568240016311859
0.06379736453044822
0.08273091866844365
0.10218719786904303
0.12183885350233227
0.1413270530165963
0.16026147993828543
0.17822033387203134
0.19475033050061544
0.20936670158501658
0.22155319496437878
0.23076262410554194
0.2365815096042912
0.23896196692974314
0.2379493311291113
0.2336418005847628
0.22619043701422684
0.21579916547018427
0.2027247743404732
0.1872769153480817
0.16981810355117247
0.15076371734304667
0.13058199845216725
0.10979414819202417
0.08898505326800857
0.06870537204721956
0.0491376719706728
0.03058352958339288
0.01329451018503483
-0.002551312934732996
-0.016849361678295465
-0.029569341049304206
-0.04075627404780025
-0.05052893248376093
-0.059079580177123434
-0.06667397295779401
-0.07365135866563818
-0.08042447715049773
-0.08689974098395248
-0.09434276144402504
-0.10581218655430555
-0.12300495449458806
-0.14619577626918623
-0.1742371357069497
-0.20455928946121305
-0.23317026700986948
-0.2546558706553247
-0.26451971274285174
-0.25417941793061083
-0.21062950656435647
-0.12626913405930826
0.0009873542691208187
0.16771524235108767
0.3649794433626552
0.5783344997255928
0.7878245831075013
0.9673559692605604
1.0861964266042952
1.1233237029970118
1.0716052288089586
0.9378053465865045
0.7425853110519935
0.5193567899894386
0.29776877701521287
0.09884228337523673
-0.06266891549517227
-0.17874434696385427
-0.24809684120192785
-0.2754717082496967
-0.26695130892551955
-0.23463536915000674
-0.18975456606849753
-0.14124026934435657
-0.09572453335477556
-0.05752884477272911
-0.028641628354489367
-0.00862025378007543
0.00506098656089244
0.014031257413744724
0.019588036193303834
0.02285897134585649
0.024802089607965337
0.02620686021093107
0.027693405301891766
0.029712018974708352
0.032543166354716595
0.036297483598725526
0.04091577789502056
0.04616902746335101
0.051748215252060976
0.05797950100084304
0.06503681785560839
0.07299110734161651
0.08189899988526202
0.09180281481406247
0.10273056035665953
0.11469593364282607
0.12769832070344211
0.14172279644432803
0.15673423596646896
0.1726608006051203
0.18941101401192276
0.2068819130451655
0.2250566985529102
0.24376981611118828
0.2627772382711384
0.28184495354089373
0.30074896638554827
0.3192752972271738
0.33721998244478646
0.35438907437439643
0.3705986413089768
0.38567476749847346
0.39945355314978476
0.41178111442679627
0.4225135834503582
0.4315171082982924
0.43866785300537914
0.44385199756337906
0.44696573792102073
0.4479152859839991
0.44655315860560046
0.44255032680381096
0.43608630458281294
0.42740946611427694
0.41676830743433585
0.40440434010675924
0.39054901331450226
0.3754237132024923
0.35923976287765613
0.34219842240888143
0.32449088362359374
0.3062981710373503
0.28779114975590847
0.2691306182270189
0.250467311860421
0.23194190302782433
0.2136850010629439
0.19581715226144875
0.17844883988099522
0.161680484141213
0.14560244222373364
0.1302950082721444
0.11582841339202059
0.10226282565091131
0.08964835007836286
0.07802502866588278
0.06742284036696466
0.0578617010970769
0.04935008066005116
0.04187516505788405
0.035376427274825845
0.029775810359467428
0.024998050857489323
0.020970706009366877
0.017624153750380532
0.014891592710611561
0.012709042214947761
0.011015342283076133
0.009752153629486417
0.008863957663471114
0.008298056489126491
0.008004572905349283
0.00793645040584038
0.008049453179101749
0.008302166108439014
0.00865599477195959
0.009075165442573793
0.009526725087993973
0.009980541370735264
0.010409302648115182
0.010788517972253702
0.011096517090073796
0.011314450443299644
0.011428185433376273
0.011441561335509998
0.011368542724611606
0.011226566328035877
0.01102523639628784
0.010771587632768097
0.010473873833353887
0.01014156548205274
0.009784851041262442
0.009414024212005751
0.009040447724507723
0.008676703401471262
0.00833659215807801
0.00803513400198769
0.007788568033336071
0.007614352444737453
0.00753116452128467
0.007558900640547261
0.007718676272574006
0.008032825979889139
0.008524903417496173
0.009219681332876761
0.010143151565989661
0.011322525049270567
0.012786231807634593
0.014561822011852764
0.01664145391486936
0.01901191444219497
0.021758875500562963
0.0249727129429574
0.02874169711865148
0.03315199287320229
0.03828765954845938
0.044230650982557844
0.051060815509923925
0.05885589596126435
0.06769152966358125
0.07764124844016165
0.08877647861058578
0.10116654099070772
0.1148786508926835
0.12997791812495202
0.1466434174562841
0.16469341187341022
0.18364401096978028
0.2030243239550504
0.22237649359955539
0.2412556962342743
0.259230141750883
0.2758810736017186
0.2908048970624386
0.30364103370081547
0.3140641025055295
0.32176227562132204
0.3264367587536014
0.32780179116844466
0.32558464569259643
0.3195116400775497
0.30944268333881947
0.29595794468134506
0.27972273588150365
0.26135878718986266
0.24144424640168943
0.220513678856945
0.1990580674403125
0.17752481258115066
0.15631773225352225
0.13579706197618385
0.11627945481261429
0.09803798137096631
0.08130212980410007
0.06625780580956804
0.05304733262964054
0.0417694510512675
0.03247931940610425
0.025149901759877635
0.019549022488556257
0.015292371043069734
0.01182757953699156
0.008433369259109827
0.004219550673432888
-0.0018729765808224788
-0.011072223689222234
-0.024775112662126703
-0.044497922746856086
-0.06962855468849494
-0.09596486851007069
-0.11812140155754183
-0.12973241762359372
-0.12345190694772051
-0.09095358621616956
-0.02447594912479152
0.08113283118117695
0.22916058236931305
0.4150733264232954
0.6262743560622523
0.842104234740377
1.0338259575383881
1.1665564356344604
1.21994793237463
1.1875113923008493
1.0727141939672258
0.8889828204188832
0.6596801181187393
0.41810401720299284
0.2066438771826533
0.041500041709706066
-0.07899691847158984
-0.1541434577794063
-0.18677566973685056
-0.18326914889666196
-0.15353788611998515
-0.11036621575805286
-0.06359916384832974
-0.019975642012594864
0.0160362495059772
0.04231853072491811
0.05910334192256809
0.06897290363756917
0.07510931476978414
0.07867904894992281
0.08078880689244283
0.08230546831143704
0.08385609192063717
0.08582791543341241
0.08836829908415518
0.091394041549165
0.09495575317603713
0.09917957613340816
0.10413053749052155
0.10986645170496766
0.11643792062268797
0.12388833347796431
0.13225386689343682
0.1415634848800924
0.1518389388372725
0.16310036980190412
0.1756143326947841
0.18939090579037293
0.20424916082161906
0.220011622509
0.23650426856056758
0.25355652967191944
0.2710012895262137
0.2886748847941344
0.30641710513394393
0.32407119319144895
0.3414838446000149
0.35850520798053725
0.3749888849414854
0.39079187315044217
0.40577000909529476
0.4197746399053295
0.432659780952362
0.44428290059575404
0.4545049201824227
0.4631902140468251
0.470206609510984
0.47542538867617856
0.47872160369444877
0.4799744385209634
0.47906661767243225
0.47587720500644753
0.4702370790008787
0.46231690187770996
0.45237860899713156
0.4406729722892688
0.4274396002541702
0.4129069379618362
0.397292267052179
0.3808017057350493
0.3636302087902196
0.34596156756741975
0.32796840998628557
0.3098122005363921
0.2916432414443939
0.2736008798018675
0.2558137461122941
0.23839936523059502
0.22146409858163166
0.20510314416018835
0.1894005365310046
0.17442914682872684
0.16025068275794288
0.1469156885931635
0.13446354517885128
0.12292246992938013
0.11230951682906157
0.10263175423442862
0.09388206920666352
0.08599215287709894
0.07888428118032347
0.07248357736551964
0.06671801199647451
0.061518402951564286
0.05681841542376395
0.052554561920644435
0.04866620226437771
0.04509554359172751
0.0417876403540568
0.038690400606918744
0.035758383177803624
0.03295923889672487
0.03026517333462773
0.027651239377054063
0.02509533722414286
0.022578214390629132
0.020083465705845772
0.01759753331372204
0.015110077099170706
0.01261569609973514
0.010112570225727913
0.007601727493332759
0.0050870432333315445
0.0025752400910999153
7.588802661239943e-05
-0.0023985956855592516
-0.004833245133695596
-0.007217847224454052
-0.009547788798420616
-0.011817419619183887
-0.014019766961206097
-0.016146535609826783
-0.018188107861259004
-0.02013354352259006
-0.021970580079299903
-0.023686910143772513
-0.025273258463244963
-0.026719954244549482
-0.028016004205394587
-0.029149092574362157
-0.030105581090911188
-0.030870509005373623
-0.031427593078957886
-0.03175922758374679
-0.031846484302698375
-0.031669112529645216
-0.03120553906929592
-0.030436525074591853
-0.029366249555241003
-0.027904518818224713
-0.025936134907027952
-0.02334629129023806
-0.020020572861546654
-0.015844955939746677
-0.010705808268739382
-0.004489889017526123
0.0029156512197867426
0.011623270423994067
0.021745035150776318
0.03339262053071943
0.04667362902524882
0.06167931549374689
0.07849622121854566
0.09730834312767028
0.11801783342031422
0.14016628292411626
0.1633007009330955
0.18697597679086828
0.2107545761623409
0.23420142660010815
0.2568846673894745
0.27838016514996805
0.2982716665506829
0.31615079831029813
0.33161706719704853
0.34427786002876754
0.3537484436728562
0.3596519650462887
0.3616013664484564
0.35948105318125373
0.3538504902841123
0.3452980568034648
0.33437212736576044
0.3215810721774267
0.3073932570248969
0.29224167525531697
0.2765449126224527
0.2606903436088014
0.24502534625098446
0.22985729416561684
0.21545355654933526
0.2020414981787475
0.18980847941047016
0.17890185618111323
0.1694289800072976
0.1613598906472568
0.15447847086888272
0.14863110428878096
0.14347462043992035
0.13846643093065514
0.13286452944474425
0.1257274917413384
0.11591447565499591
0.10208522109566569
0.08270005004869824
0.056481908260227975
0.025952026899235994
-0.0038244681060780605
-0.026824707496619846
-0.03607692689127524
-0.023662801628973426
0.0192683192829069
0.09983689402819727
0.22215467602416128
0.3856693213260577
0.5816149645588312
0.7930086989349009
0.9946505762538859
1.1531788249196147
1.236607149493642
1.2312875415653104
1.1372384173020227
0.9676178761578846
0.7487237008740459
0.5167921674304369
0.2977466648944413
0.10973532222927254
-0.03574243961260766
-0.13412005107670746
-0.18760585214377676
-0.20074428950059484
-0.1845291540267559
-0.15077140402959294
-0.10916196574648085
-0.06727173334483834
-0.030550609345215557
-0.0023196044641593944
0.01635187860948359
0.027287770223032234
0.03270559902019792
0.03443556447457999
0.0339888734259909
0.03255774008045699
0.03101538601021855
0.029916040153739932
0.02949493881569589
0.029668325666986062
0.030182695831332516
0.031317201333558496
0.033195100012873735
0.03589101118341419
0.039471272724495035
0.04399394108063366
0.04950879126152888
0.05605731684207322
0.06367272996233818
0.07237996132759213
0.08219566020829308
0.09312819444009027
0.10527136875715552
0.11866553145315867
0.13315023716434088
0.14855467389110039
0.1647081134711061
0.1814400867769867
0.1985803837163021
0.21595905323156533
0.23340640330019996
0.2507530009345971
0.26782796683107724
0.2844514379401024
0.3004406935133105
0.3156132694452346
0.3297869606653403
0.3427798211380404
0.3544101638626688
0.3644965608735171
0.37285784323981186
0.37931310106572064
0.38368168349034454
0.38578319868773236
0.385424803975255
0.3825572180839395
0.37729936297917055
0.36977542448861467
0.3601126905208583
0.34846219816036406
0.33499497309678417
0.3198843826559207
0.3033055864591191
0.2854355364232568
0.2664529767607708
0.2465384439796143
0.2258742668832871
0.20464456657081964
0.1830352564368082
0.16123404217135634
0.13943042176012044
0.11781568548428528
0.09658291592060038
0.07592698794132524
0.056044568714270784
0.03713411770277615
0.019368523071286364
0.0027684235036469773
-0.012660834568008095
-0.026912967994411313
-0.03998489285158682
-0.051876724440880304
-0.0625917772889392
-0.0721373377483256
-0.08054237881694218
-0.08785796782086738
-0.09413922546081172
-0.09944447166279065
-0.10383522557812026
-0.1073762055834295
-0.11013532928065056
-0.11218371349702422
-0.1135954311782093
-0.11444365481988499
-0.1148013458098046
-0.11474456098897559
-0.1143525564237104
-0.11370778740562996
-0.11286831877536366
-0.11183974230321442
-0.11065573240944326
-0.10934962987362412
-0.1079533781377391
-0.10649752330617585
-0.1050112141457305
-0.10352220208560689
-0.1020568412174158
-0.10064008829517573
-0.09929527448009863
-0.09803602848888335
-0.09686411079970976
-0.09577921583460959
-0.0947796406780214
-0.09386228507679184
-0.0930226514401746
-0.09225484483983112
-0.0915515730098295
-0.09090414634664593
-0.09030247790916396
-0.08973059059166014
-0.08915217820589827
-0.08857710112712876
-0.08801928061142548
-0.08748697237286551
-0.08698276658352933
-0.0865035878735005
-0.08604069533086613
-0.08557968250171621
-0.08510047739014473
-0.0845773424582481
-0.08397887462612666
-0.08326800527188372
-0.08240200023162589
-0.08133252385375311
-0.08000948062951423
-0.07838319949095723
-0.07639887194814023
-0.07399602396912648
-0.07110851597998047
-0.06769439721474209
-0.0637212995607962
-0.05894667144552194
-0.053148179795038136
-0.04614755162958217
-0.03781204323943288
-0.028051832568032516
-0.0168196698677072
-0.004110877699677645
0.010036649065948925
0.025542443250154125
0.04228346536504511
0.060094103613831364
0.07876617389083689
0.09805379381894985
0.11780696739707164
0.1374308116190396
0.15620224737185465
0.17348598098528642
0.18873454410148943
0.201493038259661
0.2114036212533427
0.21819729850781774
0.22169286089117635
0.22179688471429654
0.21850373173084767
0.2118955491372983
0.20214226957290574
0.18950161111972208
0.17427687571042944
0.1569100576210781
0.13805965481459856
0.11832900152315295
0.09825644882416144
0.07831536464033571
0.05891413373962769
0.04039615773526367
0.02303985508572913
0.007058661094796831
-0.007398972088516507
-0.020249575469920813
-0.03147466320986456
-0.041120732623515975
-0.04929130897345297
-0.05602988083728987
-0.061719506591028095
-0.0669794413974028
-0.07256023751830082
-0.07934210170328115
-0.08833489518958157
-0.10067813370210192
-0.11764098745342687
-0.14063482165972863
-0.1699711957430528
-0.20069493106722425
-0.22640643711125077
-0.24037191612704406
-0.2355246008719017
-0.20446475524978702
-0.13945967431132156
-0.032567952196715926
0.11745252158561052
0.3016524923603437
0.5058122322174347
0.710647970332895
0.8918118929689278
1.0198921434736092
1.0611832733456834
1.004281437766759
0.869609572860994
0.6802010579495582
0.4597234239826689
0.23247303589952104
0.023373841794069653
-0.14467501176757694
-0.26665921233684203
-0.34447201429149965
-0.3817923491837049
-0.38428358598695767
-0.35959353109618936
-0.31735442832768734
-0.2691829589190969
-0.22577985215749066
-0.18974384695019048
-0.161757408535442
-0.14176518514313105
-0.12897110139370918
-0.12183835829813602
-0.11808943325791893
-0.11526774293660459
-0.11290089765550733
-0.11067694918364049
-0.10830561562649227
-0.10555407628771968
-0.10224697167018865
-0.09826745452296684
-0.0935602183383901
-0.08812840744999789
-0.0819896503854256
-0.07506853690339582
-0.06729693772391108
-0.0586222228371459
-0.049006917338497484
-0.038428701428603725
-0.02688061558036583
-0.0143741300050843
-0.0009384998279619999
0.01338179046568437
0.02852710128533053
0.0444226379352194
0.06097845061437449
0.07808943441657028
0.09563532933037647
0.11348072023912892
0.13151298632252112
0.1496603812370937
0.1676626881004322
0.18525970152584664
0.20220835821161062
0.21828273694093225
0.23327619254290605
0.24700976613805306
0.25932489188538754
0.2700801469486983
0.27915125057674905
0.2864310641032533
0.2918295909468847
0.29527397661126603
0.2967085086849871
0.2960946168415876
0.2934108728395665
0.2886529905223816
0.2818319555294742
0.27284581199915814
0.26180913134712636
0.24897524163923151
0.23458806702348886
0.21888212773009183
0.20208254007140042
0.1844050164419731
0.16605586531852007
0.14723199125993447
0.1281208949072744
0.10890067298379891
0.08974001829491618
0.07079664390350954
0.052208899946663
0.03410185314282024
0.016591157529743453
-0.00021693677262055178
-0.01622558356215778
-0.03134734055455755
-0.045504169383356496
-0.058627435599909274
-0.0706578987872531
-0.08154458383920918
-0.09122957078915572
-0.09971843262622551
-0.1070831430566683
-0.11339387871190845
-0.1187184883131927
-0.12312249267157033
-0.12666908468790067
-0.12941912935284375
-0.13143116374687283
-0.1327613970402687
-0.13346371049312009
-0.1335896574553198
-0.13318846336657048
-0.13230702575638326
-0.13099071436344745
-0.1292891055911606
-0.1272526388087774
-0.12492944707858596
-0.12236533555268068
-0.11960378147296336
-0.11668593417114519
-0.113650615068741
-0.11053431767707712
-0.10737120759728601
-0.10419312252030916
-0.10102957222689223
-0.09790773858759151
-0.0948524755627708
-0.09188630920260119
-0.08902943764705937
-0.08629973112593228
-0.08371160444365576
-0.08124934608404721
-0.0789284114887287
-0.07678052228763543
-0.07483487422577265
-0.07311813716321046
-0.07165445507508579
-0.07046544605160093
-0.06956916254512767
-0.06896997211537637
-0.06866293460541353
-0.06864048830302938
-0.0688925456110823
-0.06940649304749644
-0.070167191245262
-0.07115697495243573
-0.07235565303214248
-0.07374050846257135
-0.07528620164752287
-0.07696438412748195
-0.07874403105784955
-0.08059159166012238
-0.08247098927086312
-0.08434362134170068
-0.0861683594393343
-0.08790154924552522
-0.08951272245209074
-0.09108920855848887
-0.09241708642134475
-0.09322939635617487
-0.09329624629745772
-0.09242481179863404
-0.09045933603211578
-0.08728041462715318
-0.08279536991084155
-0.07694081157424801
-0.06969022692989893
-0.06105417090927668
-0.05108026606282768
-0.039853202559956606
-0.02749473818905491
-0.014163698357455748
-5.597609146737459e-05
0.014595957242238389
0.029462316634447178
0.04396743012406085
0.05754290837766715
0.06968842220622193
0.07997170256505634
0.08802854055385671
0.09356278741669699
0.09634635454202017
0.09621921346263923
0.09308939585573792
0.08692597253363839
0.07787873137774176
0.06637797297763634
0.05288035763822828
0.03784663127297866
0.021714802870086702
0.004902162008231098
-0.012169511926047774
-0.029072956776508174
-0.045375427617171116
-0.060638696752341986
-0.07456824098241635
-0.08703190187177776
-0.09779502630620979
-0.10671682839812073
-0.11375488155025436
-0.11896459991383082
-0.12249749640290408
-0.12460113594899187
-0.1256191355010711
-0.1259911640255909
-0.12625294250646435
-0.12703624394506624
-0.12885455317755184
-0.13294637093089978
-0.1421922183152636
-0.15795809543045444
-0.17987417389475446
-0.20583479684497774
-0.23199763626090733
-0.25275947419464984
-0.26176341324746466
-0.25212184112300773
-0.21117363023749686
-0.13073965956102385
-0.008101212347648696
0.15400002386481104
0.3473619572546571
0.5583220917164358
0.7677762165209765
0.9453180921072903
1.0570462516020598
1.0830426480779256
1.0183489358863969
0.8729664706579212
0.6713367913223497
0.4445060620503232
0.22159319267430572
0.024609014857806217
-0.13217200311645436
-0.24221175634668213
-0.3060323724483549
-0.3258684541574808
-0.31312556931755176
-0.2795531126921822
-0.23496736705021043
-0.18725802678628833
-0.1423675998455742
-0.10428972124973744
-0.07506915309702006
-0.05441984818933455
-0.03969935544610899
-0.02914110835870863
-0.02130468991736597
-0.01499834337585814
-0.009277859275197836
-0.0034456239540822595
0.0029475290234539236
0.010102094754175533
0.017969896995639764
0.026254088166203435
0.03482228781503874
0.04395927036074272
0.05371499783082148
0.06412752043144951
0.07522365559724536
0.08701898799129701
0.09951786950514668
0.11271341925879864
0.12658760504863692
0.14111814357569294
0.15628375580013937
0.17205316734887258
0.18838505012399603
0.20537732037456666
0.22295912871989343
0.24090863052522826
0.25901169011899916
0.27706188079285915
0.29486048480165433
0.3122164933634406
0.3289466066594491
0.3448752338341359
0.3598344929951519
0.37366421121335397
0.38621192452278014
0.3973328779206893
0.406890025367534
0.4147540297869744
0.4208032630658555
0.4249238060542369
0.42700944856537704
0.4269616893757338
0.42468973622496253
0.4201105222453091
0.41313122714255024
0.4035035033731293
0.39139867340261825
0.37709968345947587
0.36087843072321013
0.34299576332437115
0.3237014803445744
0.30323433181646886
0.281822018723752
0.2596811930011639
0.23701794844853888
0.214029684481004
0.1909034565983284
0.16781527138175048
0.14493008636354726
0.12240181002707137
0.10037330180669647
0.07897637208785067
0.05833178220700673
0.03854924445170539
0.01972742206051154
0.0019539292230488503
-0.014694668920019978
-0.030152856276965137
-0.04436617852719778
-0.05730005311690793
-0.06895517451508662
-0.07934740846745218
-0.08849982298210439
-0.09646195996455709
-0.10332144203025231
-0.10916468310427513
-0.11407522246984039
-0.11813372476828679
-0.12141797999907607
-0.12400290351978942
-0.12596053604613872
-0.1273600436519562
-0.128267717769198
-0.12874697518794456
-0.12885835805639995
-0.1286595338808928
-0.12820529552587656
-0.12754756121392435
-0.12673537452573752
-0.12581490440014
-0.12482944513407893
-0.1238194163826257
-0.12282236315897543
-0.12187295530543535
-0.12099707840896154
-0.12019719595715886
-0.11946843390636713
-0.11880270618599265
-0.11816083216698578
-0.11752809317062002
-0.1169127044027029
-0.11632049061691695
-0.11575488611481911
-0.11521693474584278
-0.11470567859140723
-0.1142233448202759
-0.11377394252360429
-0.11335919097716979
-0.11297841900462526
-0.1126285649774989
-0.11230417681519242
-0.11199741198498353
-0.111698037502025
-0.11139342992934614
-0.11106857537784748
-0.11070606950630947
-0.11028611752138179
-0.10978653417759646
-0.1091827437773544
-0.10844530047830757
-0.10753140166892322
-0.1063928237395728
-0.1049789525257669
-0.10323678341089784
-0.10111092132622758
-0.0985435807508926
-0.09548536860070732
-0.09192442058720116
-0.087626276406742
-0.08233845128540633
-0.0758433136863717
-0.06795808530992517
-0.058534841093445256
-0.04746050921141326
-0.03465687107541229
-0.020080561334134703
-0.0037230678733618794
0.014389268184016452
0.03419525247802078
0.055598837411545074
0.07846912215040602
0.10264434299658104
0.1280783511630585
0.15422761958201456
0.18036757364123956
0.20580774086807577
0.22992496410241572
0.25218128895789416
0.2721239829631688
0.2893855355619017
0.3036836581127603
0.3148212838894135
0.3226865680805519
0.3272528877898616
0.3285788754603699
0.32681139526383324
0.3221878915404906
0.3149814475783487
0.30565360797090957
0.29479573542458837
0.28293365497564993
0.27052671464382605
0.25796778543230836
0.24558326132778197
0.2336330593003707
0.22231061930367935
0.21174290427476852
0.20199040013418573
0.1930471157859257
0.1848494497011151
0.17733160092786399
0.17038961818362314
0.16391567870389823
0.15765671141741489
0.15095713802476213
0.1430111036506692
0.1328710789671437
0.11944786019347992
0.10151056909624581
0.07768614684343506
0.047177490246536835
0.012901109150869824
-0.020295443451852163
-0.04648736177427776
-0.05867258723350288
-0.04877180845101485
-0.00784130222851831
0.06995965403591498
0.18996782496872397
0.35143363398973504
0.5454553632329412
0.7549791535466218
0.9547990044929598
1.1118973013689213
1.196784964991583
1.1961333255459248
1.108929880863998
0.9461453541746385
0.7307339631398135
0.4976229654577536
0.28094964016745777
0.09626791692197985
-0.04600005862233979
-0.14105258467932147
-0.1897084033328026
-0.1984071682515037
-0.1770597779190709
-0.13647227637394885
-0.08807897504601146
-0.04049107575043955
0.0005383422121692932
0.03211432205581874
0.05420002950907157
0.06927187721779834
0.0793980843878229
0.0860951604785018
0.09065778997647761
0.09411680873655652
0.09723920398169883
0.10053010552455802
0.10425581667051999
0.10843587232891352
0.11284366710810853
0.1175605208400181
0.12277302251495506
0.12855618265994948
0.13497577911913197
0.14208835705374018
0.14994122894210016
0.15857247457965656
0.16801094107895048
0.17827624286963284
0.18937876169844076
0.20132687215579687
0.21435077273978298
0.22841286986892056
0.24331277352912933
0.25885605362701974
0.27485423998985603
0.29112482236557263
0.307491250422742
0.32378293375062484
0.3398352418591347
0.3554895041788574
0.3705925943441618
0.3849901805182459
0.39852784765832644
0.4110569514220533
0.42243480738771755
0.43252469105429503
0.4411958378414165
0.44832344308937955
0.45378866205913126
0.45747860993229583
0.45928636181115384
0.4591109718111485
0.4568577140015234
0.4524380101898775
0.44569387837179514
0.4366521249060639
0.42558663433982885
0.4127615949990646
0.3984298297266647
0.3828327958824299
0.3662005853430941
0.34875192450228665
0.33069417427055764
0.3122233300753618
0.29352402186109344
0.27476934876385783
0.25611695912350924
0.23770888688772876
0.2196756024609594
0.20213621076453475
0.18519845123670894
0.16895869783264467
0.15350195902444094
0.13890187780108673
0.12522073166849346
0.11250943264948335
0.10080752728380711
0.09014319662811296
0.08053325625596935
0.07198409816125687
0.06449109417890815
0.05798638693826255
0.05238970203319242
0.047623634871879574
0.043613650676829666
0.04028808448484765
0.03757814114705549
0.03541789532888641
0.03374429151008889
0.032497143984719985
0.031619168470431835
0.031057145985729742
0.030762261334536876
0.03068866976301301
0.03079339633162869
0.031036335915165993
0.031380253202721066
0.03179078269770136
0.032236428717826095
0.03268856539512755
0.033121436675949606
0.033512156387667406
0.033840713535769326
0.034089976148135366
0.034245682973640945
0.034296442575475414
0.03423373333114001
0.03405190343244789
0.03374783769112318
0.03331330906453517
0.03273498480315145
0.03200066704307924
0.031099479195383993
0.030021865946087502
0.02875959325617152
0.0273058985509219
0.025664958798694792
0.02385754041473108
0.021907087458789172
0.019838365265580044
0.01767746044477765
0.015451780881012303
0.01319005573387318
0.010922335437906966
0.008679991702619225
0.0064957175124730135
0.004403527126891578
0.002438756080250973
0.0006380611818916498
-0.0009673317017058272
-0.002371123059050531
-0.0034582367057238578
-0.004092836534094049
-0.004140584804697207
-0.003468642146233221
-0.0019456675555674444
0.0005581816022675878
0.004171249594071752
0.00902038231848265
0.01523092730597081
0.022926627748809977
0.032216129274362196
0.04317973899832489
0.05589312125356441
0.07043044200478693
0.08694826403277421
0.10546089811177811
0.12546146599881286
0.14643761601809485
0.16789538506998095
0.1893591986310199
0.21037187075391914
0.23049450064022214
0.24930611851105605
0.2664040166753728
0.2814038760139544
0.2939397659837531
0.3036641446178758
0.3102478585256083
0.3133801428923991
0.31276857366793526
0.3081185297175687
0.2998204028124095
0.28856473493521173
0.2749878611411649
0.25967193191606597
0.24315281051410872
0.2259317216321591
0.20845865243168477
0.19112938314661906
0.17428548708331104
0.15821433062056
0.1431490732095977
0.12926866737411827
0.11669785871023505
0.10550718588650926
0.09571298064393939
0.08727736779597717
0.08010826522850133
0.07546681343363906
0.07328047135801648
0.0704762717226018
0.06472493386735298
0.054472684995036574
0.038941260171219336
0.018127902324298662
-0.007194637754540089
-0.03547810141129667
-0.06439872212917733
-0.09085722552853859
-0.11110516380106486
-0.11867549786784191
-0.09960992797033175
-0.04342165260299453
0.05501047996816978
0.19544197170560546
0.3722626748002878
0.5744967916713881
0.7858558795424112
0.9797350629648445
1.1179143914211525
1.1743582873020324
1.1386534488992934
1.0160092811581911
0.82725775426339
0.6041856885184222
0.37696762540208484
0.17015652348550658
0.0006002847167527088
-0.12255872497115745
-0.19788367566070963
-0.229278617190716
-0.22313718705536909
-0.19261522132609096
-0.14898103801298876
-0.10118423802986357
-0.05586115404330105
-0.017350979434164
0.012320468915238445
0.03347665331648271
0.04904009099601661
0.06079537547633434
0.06972397894213052
0.07669444419533512
0.08246238465511
0.08767048435785137
0.09284849795719623
0.09841325072401585
0.10466863854641995
0.11180562792974945
0.11990225599658477
0.12892363048674585
0.13872192975728798
0.14903640278249355
0.1596123789366183
0.17074519866321702
0.1825057932027334
0.19489489564889695
0.20789565586844677
0.22147364050116453
0.23557683295985266
0.25014221210729903
0.2651223448827014
0.2804626464652302
0.2960909526141804
0.31191751586188116
0.327835005513664
0.3437185301134592
0.3595322674273768
0.37514440731956233
0.3902980494809761
0.404756611360525
0.41830382410796213
0.4307434437992489
0.44189905942975394
0.45161453220674985
0.4597540410954276
0.466202082818899
0.47086347185819477
0.4736633404522802
0.4745471385980398
0.47348063405028284
0.47044991232174005
0.46546137668306886
0.4585417481628503
0.44973806554758644
0.4390930561988938
0.426530891842562
0.41225389639059185
0.39651783157075565
0.37956634199365996
0.3616309551527081
0.3429310814241247
0.323674014066942
0.30405492922303257
0.28425688591705844
0.26445082605650655
0.24479557443167027
0.22543783871568437
0.20651220946447307
0.18814116011678428
0.17043504699417392
0.15349210930103668
0.13739846912455966
0.12222813143475253
0.108042984084434
0.09489279780925824
0.08281522622767447
0.07183580584095461
0.061981732800693176
0.05326596716888733
0.045611470904087376
0.03894057742580652
0.03317962092575691
0.028257578951321725
0.02410606246283982
0.020659315833620098
0.01785421684993557
0.015630276711030025
0.013929640029108204
0.012697084829341555
0.011880022549869643
0.011428498041797866
0.011295429396757383
0.011437387174794986
0.011813845967702836
0.012386913782321554
0.013121332038456666
0.013984475568878059
0.014946352619325639
0.01597960484850247
0.017059507328077064
0.01816396854268537
0.019273530389929128
0.0203713681803749
0.021443290637556525
0.022477625968424807
0.023464083660673533
0.02439423184345841
0.025262260553101955
0.026064993238892123
0.02680188676308483
0.027475031400900917
0.02808861552357344
0.028631372544200583
0.029083242184783423
0.029427004339372405
0.029648346521025732
0.029735863861808237
0.029681059112792597
0.02947834264405729
0.02912503244468925
0.028621354122782355
0.02797044090543696
0.027178333638761484
0.02625398078787071
0.02520923843688646
0.02405887028893858
0.02282054766616364
0.021514849509704777
0.02016526237971318
0.018799098414065508
0.017460204183335916
0.016194929344934758
0.015022038634465825
0.014126389264418587
0.0137081153823218
0.01395011935924629
0.015018071789801614
0.017060411492140565
0.02020834550794877
0.024575849102458615
0.03025966576444198
0.037339227269588035
0.04587574948875366
0.05591255453281303
0.06747572042100078
0.08057409339609882
0.09529891659735237
0.11141344909320039
0.1283221312700143
0.14546791677675874
0.1623346615972361
0.17844712405013266
0.19337096478898494
0.20671274680218907
0.21811906703713738
0.2272593522058594
0.2338268553066639
0.23755506280218147
0.23821836348990125
0.23563204850217218
0.22963291306253966
0.22018521843935537
0.2078939083523284
0.19341373059213227
0.17734566681140307
0.16023693252476318
0.14258097710880505
0.12481748380212998
0.10733236970529207
0.09045778578083383
0.0744721168532703
0.05959998160912175
0.046012232596863406
0.03382595622695895
0.023104472771847073
0.013857336365965065
0.0060403350057102664
-0.0004651444430448133
-0.005913492151944859
-0.010632876987031713
-0.015163800698299618
-0.020272832246509054
-0.02696623353201347
-0.03649077396875648
-0.050333730484291885
-0.07018520991950594
-0.09625478812290006
-0.1259022024342865
-0.154900985828202
-0.17753356072655013
-0.18659123899861074
-0.17337421761405564
-0.12922645748335035
-0.047907172520359795
0.07687652095080051
0.24362484827620573
0.4425571843069394
0.6556120533988902
0.8564471294128799
1.0114909600478634
1.09291547046556
1.08718317468432
0.9937345692334759
0.8249677950576934
0.6062385003651293
0.37500340762948375
0.15968783081080373
-0.024699256310326014
-0.16770644374424526
-0.2644078399662472
-0.3154030719166956
-0.3268172850009535
-0.3081076376404748
-0.2693875727015649
-0.22184955039504256
-0.17407485735563388
-0.13198235681171877
-0.09882848858541435
-0.07520726909254768
-0.05910550374477368
-0.048054996340022145
-0.040602962912419764
-0.03545917163995723
-0.0315645451947407
-0.028091160742980695
-0.024442249945001514
-0.020252198955236615
-0.015386548422233526
-0.009941993488647506
-0.0041649612514795785
0.0021307075771303113
0.009068342447315384
0.01671589173817976
0.025131375590787396
0.03436288590816988
0.04444858635530922
0.055416712359162124
0.0672855711086447
0.0800635415546414
0.09374907440998242
0.10833069214947846
0.12380068949084627
0.14031818130919693
0.15777804688551128
0.17597939424499304
0.19472732878092106
0.21383295325473037
0.23311336779597855
0.2523916699023955
0.2714969544398505
0.29026431364236854
0.3085348371120983
0.32615561181935915
0.34297972210261274
0.35886620120203877
0.3736698918396399
0.3872289461614612
0.3993844504417976
0.40998348832309556
0.41887914081593836
0.42593048629906743
0.4310026005193674
0.43396655659187455
0.4346994249997676
0.43305553004343683
0.42875963698479297
0.42196646414286415
0.41291380059144994
0.4018285108917673
0.3889265350924649
0.3744128887296175
0.35848166282674476
0.34131602389477766
0.32308821393208254
0.30395955042444534
0.28408042634510783
0.2635903101547154
0.24261774580134965
0.2212803527205151
0.19968484449340723
0.17794197035289158
0.15619344109461974
0.13457731795814928
0.11322073767046031
0.09223991244598168
0.07174012998655113
0.051815753481442496
0.032550221607354386
0.01401604852842539
-0.003725176103785874
-0.020622787150291356
-0.03663704398467579
-0.051736956742636
-0.06589970449219489
-0.07914684942556613
-0.09150436153357196
-0.1029953657591946
-0.11364014199756703
-0.12345612509597778
-0.1324579048538761
-0.14065722602285774
-0.1480629883066802
-0.15468124636125297
-0.16051520979464612
-0.16556524392991256
-0.16984214507989287
-0.1734009547834635
-0.17630430550121548
-0.17861198464589406
-0.18038093458240545
-0.18166525262780636
-0.18251619105130884
-0.1829821570742842
-0.18310871287025682
-0.18293857556490167
-0.18251161723605758
-0.18186486491371306
-0.18103250058001205
-0.1800398462642492
-0.1789090703068077
-0.1776818784688809
-0.1763991666101738
-0.1751002142449934
-0.17382268454226407
-0.1726026243255237
-0.1714744640729175
-0.17047101791720365
-0.16962348364575053
-0.16896144270054164
-0.1685128601781683
-0.16829686068910954
-0.16829835497474255
-0.16849144729654025
-0.16884862504252462
-0.16934075925533149
-0.1699371046322059
-0.1706052995250048
-0.17131136594019786
-0.17201970953886486
-0.1726931196366965
-0.17329276920399794
-0.17377821486568285
-0.17410744400832406
-0.17423960909887323
-0.17414613816880978
-0.17386384229221485
-0.17322879784184475
-0.17203870879017
-0.17010949928157157
-0.16727531363233036
-0.16338851633063223
-0.15831969203656676
-0.15195764558213615
-0.144209401971238
-0.13500020637967958
-0.12427706975427401
-0.11202563725084153
-0.09825706533969435
-0.08300073975652751
-0.06630426640893075
-0.04823214522633182
-0.0286839512786443
-0.008104064939116695
0.012770850609577195
0.033271899337893596
0.05279795236947711
0.07081564798111503
0.08685939160275913
0.10053135581750258
0.11150148036161175
0.11950747212450263
0.12435480514875444
0.12591672063009376
0.12413422691741305
0.11901609951275473
0.11063888107132104
0.09914688140147855
0.08475533989005207
0.06795602712979015
0.049384430483695396
0.029620319098007747
0.009215924024477101
-0.011323567876036375
-0.031555836300537876
-0.051101503134769743
-0.06964413245328045
-0.08693023051938364
-0.10276924578516815
-0.11703356889148224
-0.12965853266796715
-0.14064241213302708
-0.15004642449384564
-0.15769566810774993
-0.1637241505891592
-0.1690973226924226
-0.17473232379620096
-0.18148629565828092
-0.19015638241558475
-0.20147973058416785
-0.21613348905922564
-0.23473480911505998
-0.2578408444051281
-0.2871442883903401
-0.31779636470377237
-0.33694490880635164
-0.33413534966078495
-0.3016119156579177
-0.23428795471025238
-0.12970853347318967
0.011949979195038103
0.18787991223359468
0.392642292378904
0.6159105348847611
0.8249450019610122
0.9833784613519068
1.0669694551906526
1.0637823969407663
0.9741875713961371
0.8109977142429708
0.6032001617159908
0.3827055160395356
0.1745218649360047
-0.0033778783310477734
-0.1400559749564977
-0.22810460370293262
-0.26880183958477716
-0.2740605617270828
-0.2545361301337752
-0.2194638109779585
-0.1766587766019837
-0.1325099298444703
-0.09190650927178262
-0.05826237152693875
-0.03357016293062892
-0.018341286724683617
-0.00982687633973231
-0.005647033013204766
-0.004485522348928822
-0.005226189888389132
-0.006952961110741618
-0.008949841432808192
-0.010700916209081715
-0.011890350731718388
-0.012402375484820427
-0.012321136247273323
-0.011812366280862407
-0.010571157219916846
-0.008422598869278333
-0.005238075063745601
-0.000900656298524663
0.004694900270792449
0.01164215082821702
0.02002296489736254
0.029907525341436886
0.041354328363265885
0.05440662245118491
0.06903284110010914
0.08513554984461617
0.10260440458110853
0.1214609906000049
0.1415756932512098
0.16266175463751267
0.18444197427145417
0.20664870907530358
0.229023873381072
0.2513189389304775
0.27329493487499845
0.2947224477758375
0.3153816216039388
0.33506215773995296
0.3535633149742986
0.37069390950710984
0.38627231494826075
0.40012646231734594
0.4120938400437086
0.42202149396641886
0.4297660273342835
0.4351936008058343
0.43817993244935044
0.43861029774283444
0.4363645762888222
0.43125685616521336
0.42347249296279943
0.4132779075134855
0.4009300998283552
0.386676649097698
0.37075571369097315
0.35339603115683044
0.33481691822309945
0.3152282707968195
0.2948305639641935
0.27381485199061806
0.2523627683206682
0.23064651764801253
0.20882845757400328
0.1870608911687881
0.1654866492080481
0.14423914164667975
0.12344235761874091
0.10321086543748377
0.08364981259534018
0.06485492576394947
0.04691251079411669
0.029899452715842947
0.013883215738302583
-0.001078294350088091
-0.014938950967378212
-0.027716870413811698
-0.0394748798825045
-0.0502737640931402
-0.06017180063614064
-0.06922475997265078
-0.077485905434542
-0.08500599322441356
-0.09183327241559122
-0.09801348495212774
-0.10358986564880353
-0.1086031421911233
-0.11309153513532177
-0.11709075790835939
-0.12063401680792415
-0.12375201100242796
-0.12647293253101607
-0.12882246630355515
-0.13082379010064085
-0.13249757457359485
-0.1338619832444668
-0.13493267250603314
-0.1357227916217962
-0.1362429827259859
-0.1365014741120815
-0.1365102687594484
-0.13628901475416014
-0.13585577678906027
-0.1352261124277179
-0.13441307210443015
-0.13342719912422094
-0.13227652966284106
-0.13095843565146142
-0.12946614591494937
-0.12782892878190563
-0.1260752831718779
-0.12423075505677861
-0.1223179374617011
-0.12035657711022453
-0.11836386937020515
-0.11635415117370647
-0.11433880650515252
-0.11232626640132964
-0.11032200895138773
-0.10832855929683781
-0.10634548963155349
-0.10436941920177129
-0.1023940143060878
-0.10040998829546458
-0.09840506115764686
-0.09635844182044127
-0.09423521232980506
-0.09199616340761388
-0.08959913282810465
-0.08699900541787575
-0.08414771305588821
-0.0809942346734678
-0.07756766434082905
-0.07378858145123551
-0.06938780075850652
-0.06413117471661306
-0.05782104442768945
-0.05029623964203443
-0.041432078758124644
-0.031140368822580467
-0.01936940553020948
-0.006103973223988828
0.008634655104968872
0.02478871781734037
0.04226396462568684
0.06092965659436263
0.08061856613955228
0.10112697702932388
0.1222220933412014
0.1435337607608124
0.16443591681799688
0.18432705025057106
0.2026709822790036
0.21899917166833044
0.23291071472821034
0.24407234531294558
0.252218434821421
0.25715099219714777
0.2587396639282562
0.25692173404748675
0.25169064273148145
0.24334590030750017
0.23236568818337
0.219215418567205
0.20434721917566825
0.18819990139285955
0.1711989123818574
0.1537563344120353
0.13627088485892927
0.11912791620435947
0.10269941603637175
0.08729846338857608
0.07278722462483454
0.05942785535148304
0.04749731210200628
0.03712497768773082
0.02830602764802058
0.020885799134453403
0.014555923971882836
0.008854328658429222
0.0031652343655083764
-0.003280843062183625
-0.011407093106683405
-0.02229041057672501
-0.037298605847792154
-0.06590706662180568
-0.10588940174761068
-0.1478141188534147
-0.18344744688379427
-0.20575333609981564
-0.2088934580790646
-0.18822720571556686
-0.14031169321977022
-0.06290175611864121
0.04505004874428063
0.1833934432092908
0.3507804277999386
0.5446652817231974
0.7554629095793474
0.9435425225508605
1.072558507468523
1.1202680343489135
1.0783384058769314
0.9523494825395756
0.7617936826262491
0.5370585833685255
0.3074466177200081
0.09651041361377577
-0.07916324079881508
-0.2099588961507418
-0.29323244186004815
-0.3332290045202912
-0.33560138300069053
-0.31092678343199565
-0.271136068030481
-0.22577542080675173
-0.18200867224711692
-0.14461749395659285
-0.11600139865875728
-0.09617774019569775
-0.08287620100368284
-0.07388101417208606
-0.06799878296191872
-0.06419483550190323
-0.06158005746042334
-0.059412794251512885
-0.0571067368188112
-0.05422427301267737
-0.050473349668028855
-0.04570747115947557
-0.03992569940129999
-0.03327265384749264
-0.02603851149171365
-0.01829221513939936
-0.009750404634818834
-0.00036861412362450274
0.009882008255679059
0.02101525038650192
0.03302983617410368
0.04590942554562105
0.059622614450106935
0.07412293485845386
0.08934885476343445
0.10522377817974332
0.12165604514389229
0.13853893171433634
0.15575064997136315
0.173207786057299
0.19079771745551635
0.20826958760765804
0.22538518128517634
0.24194134463637978
0.25775609829632773
0.27265922262787023
0.28649223106742033
0.2991083701250044
0.310372619384304
0.32016169150256857
0.32836403221066685
0.3348798203131058
0.3396209676879699
0.3425111192869833
0.34348565313546264
0.34249168027661914
0.33947252431586694
0.33412082753775824
0.32652988816819106
0.31696681527618
0.3056893791897849
0.29294601149605026
0.27897580504106817
0.2640085139299536
0.24826455352679788
0.23195500045475415
0.21528159259599536
0.19843412101786856
0.18157077600998311
0.16482912953074508
0.1483373269028364
0.13221417470796198
0.11656914078679123
0.10150235423906406
0.08710460542354014
0.07345734595794703
0.06063268871909364
0.04869340784275101
0.03769293872374961
0.027675378015935927
0.018675483632141665
0.010718674744250055
0.003821031783163703
-0.002010703561225638
-0.0067802488011093065
-0.010534366099003305
-0.013361951485494586
-0.015351639583115077
-0.016589348667791833
-0.01715828066881023
-0.0171389211688235
-0.016609039403878808
-0.015643365259942463
-0.014310276340987672
-0.012673143427053992
-0.01079258518573192
-0.00872650393798665
-0.006530085658157041
-0.004255799973957662
-0.001953400166472802
0.00033007682983438036
0.0025503104271271324
0.004665696384197615
0.006637346806460338
0.008429090145957108
0.01000747120135656
0.0113422551769864
0.012411042727408922
0.013197132784986437
0.0136865777199663
0.013868146249219025
0.013733323436240744
0.013277524501412508
0.012500467466225101
0.011388178679937765
0.009925873822594536
0.008100204045879713
0.005900773859852923
0.003341761896689107
0.000456815158741828
-0.002718507080842685
-0.00614721007727323
-0.009790863614109234
-0.013609602003259308
-0.017562124084985014
-0.02160569322790413
-0.025696137328979234
-0.029787848813529347
-0.03383378463522086
-0.037785466276074244
-0.04159297974646341
-0.04520497558510935
-0.04856866885908899
-0.05162983916382416
-0.05433283062310013
-0.05662055188904485
-0.05844448938137742
-0.05976321907732187
-0.06041846010223269
-0.060241667149180486
-0.05906966362468585
-0.05674464164869848
-0.05311593889547461
-0.04807637963924327
-0.041560807099722846
-0.033510916378186706
-0.02387377128935403
-0.012601804361360255
0.0003471831641880946
0.015010021332277586
0.031418171474426326
0.04960897218117771
0.06969999421963724
0.09130952672901699
0.1139211792395737
0.1370348029985329
0.1601664406238239
0.18284610801663537
0.20461692215399996
0.22503801113363311
0.2436847447703186
0.260148734595792
0.27403783385885655
0.2849761375252956
0.29260398227791773
0.2965779465165597
0.2965708247775685
0.2922527279898991
0.28395552868028456
0.2723382757848358
0.2580214375627374
0.24158453867130286
0.22356616016594807
0.2044639395001389
0.18473457052548542
0.16479380349169492
0.14501644504652367
0.12573635823588647
0.10724646250373507
0.08979873369216469
0.07360420404136288
0.05883296218957846
0.045614153173194324
0.03403597842668461
0.02407365078422273
0.015546532749713703
0.008181205237253807
0.0015488307037718856
-0.004935032366011269
-0.012010429459590397
-0.020573010036648486
-0.031674027529066166
-0.04652074978077267
-0.06649729954553427
-0.09282199378186178
-0.1225530757156251
-0.14980739657449987
-0.16821812435707081
-0.17096673571563997
-0.15078301595636312
-0.09994505903914114
-0.010629205248436389
0.12054603853556092
0.29108864670965806
0.49168518847825177
0.7058777534933165
0.910063951897813
1.0734974064747491
1.1599877861114956
1.1560042250610985
1.0696435271052076
0.9147842085689071
0.7108622438785649
0.4828710655610069
0.26136156424465695
0.07698117287164705
-0.06407367964044232
-0.16018449498426016
-0.21246759133128162
-0.22533627323501615
-0.20650999250216293
-0.16701543292483384
-0.11921855753640463
-0.07104964594157272
-0.028039026034542253
0.006426249204570935
0.031106045163365122
0.04690714559692905
0.05685124985564606
0.06360306418619527
0.06812114729281879
0.07134903274429012
0.07401941717503403
0.07665416028510308
0.07956428484020485
0.08284997667167907
0.08641356737515088
0.09030183882300113
0.09462521702360334
0.09943931723767115
0.1047921009812742
0.11072387602579385
0.11726734247686696
0.12445810778150178
0.13234809036562445
0.1409848606538687
0.15040833532616893
0.16066287938705834
0.17179770585030896
0.18377112610646854
0.1965246638136329
0.20999091965287492
0.22409357132828434
0.23874737356701675
0.25385815811920204
0.2693228337579813
0.2850293862795706
0.30085687224779484
0.316675364602738
0.3323459792411934
0.3477209087046661
0.36264342255772547
0.3769478673879125
0.3904596668057917
0.4029953214449832
0.4143643819202965
0.4244635571340508
0.4332451351404404
0.44064270860604415
0.4465516510322357
0.4508795104744743
0.4535568690806695
0.45453734309118116
0.453797582838816
0.45133727274881297
0.44717913133887044
0.44136891121914096
0.43397539909219207
0.4250904157530657
0.4148288160892569
0.4033284890806587
0.3907503577996812
0.3772783794111061
0.3631195451722134
0.34843557352871135
0.3332768754845125
0.317770046107723
0.30202834322396277
0.28614844953873997
0.2702104726373947
0.2542779449850586
0.23839782392674222
0.22260049241457705
0.20692121294882304
0.191456308655021
0.17630308245545076
0.1615422621522663
0.1472380004274549
0.13343787484280334
0.12017288783997074
0.10745746674044476
0.0952894637455273
0.08365015593638382
0.07254707377717769
0.06202953305853988
0.052091296754613076
0.04272813490755295
0.033938976719700156
0.025725710238342407
0.018093113324888915
0.011049108830020648
0.004604783715570673
-0.0012256109454629738
-0.006424659968923205
-0.01097178405949542
-0.014843239810700515
-0.018012119704907195
-0.02044835211331722
-0.022132513514808216
-0.02310560870665925
-0.023423768067478257
-0.02313995950195563
-0.022303986803621265
-0.020962489654846546
-0.0191587734141601
-0.016929909268857173
-0.014321490283306482
-0.011382123062342188
-0.008159186629573406
-0.004698832427384517
-0.001045984316932827
0.0027556614218486875
0.0066636360902498845
0.010636698570794245
0.014634835327222769
0.01861926040450515
0.02255241542883548
0.026397969607633773
0.030120819729546187
0.0336870901644432
0.037064132863421154
0.04022052735880123
0.04312608076413309
0.04575838314021318
0.04813478062503206
0.05028787725047119
0.0522515248610516
0.05406080288251924
0.05575201832184456
0.05736270576722513
0.05892931269007808
0.060434244036384296
0.06199183888872006
0.06377028793546746
0.06592948047947961
0.06862100443807342
0.0719881463430333
0.07616589130756936
0.0812807443717999
0.0874503124960391
0.094783776852781
0.10338201722898357
0.11333761202609671
0.12473483826001573
0.13764967156109895
0.15214978617420652
0.16829455495862122
0.186303381423635
0.20594369900170462
0.2265776710401381
0.24759975484246668
0.2684484717889313
0.2886064682656303
0.3076005156645634
0.32500151038352254
0.34042447382621166
0.35352855240214903
0.3640170175267124
0.37163726562115745
0.3761808181125697
0.3774833214338999
0.37542454702395095
0.3699283913273879
0.36104491371340575
0.34926950939159973
0.33518323815761497
0.3193260699586324
0.30219808437332
0.28425947061179263
0.2659305275155568
0.24759166355762993
0.22958339684240622
0.2122063551057738
0.1957234934802931
0.18037980821702101
0.16626624648995705
0.15328380548771836
0.14167859775621455
0.1315434644560417
0.12278686865604375
0.11513289533337101
0.1081212513734527
0.10110726556998226
0.09326188862495319
0.083571693148642
0.07083887365958709
0.053808967760255365
0.031111432566295977
0.0025887449030687557
-0.02983982281578769
-0.062175138646861326
-0.08833910438680825
-0.10063090834919916
-0.09116226748937899
-0.04971124294881869
0.03039123087086067
0.15148303179943207
0.3115708498980234
0.5043633315334297
0.7225615681550878
0.9311774236647307
1.0918397525008186
1.1788287250697413
1.179075827745884
1.0921638628711325
0.9303269487554454
0.7184774735744306
0.4899754086982135
0.2701560689056104
0.07727333705840655
-0.07614948612865453
-0.18331968208817678
-0.24317511439928996
-0.26038422878823586
-0.24534605312823388
-0.21106804563159928
-0.16642524891834196
-0.11980745041850538
-0.07740973315394127
-0.04319437841667215
-0.018890865769127574
-0.003995873043991061
0.004226723655804378
0.009852655505610725
0.01367954810280184
0.016384986053345034
0.01863770191786312
0.020952851582752688
0.02369201426016977
0.027063192488035986
0.03112081213005115
0.03578016557208209
0.04110931660086932
0.047220433114912155
0.05418037940025226
0.06204642544355844
0.07086624693208653
0.08067792525369424
0.09150989553772063
0.10337901037573075
0.1162899634437771
0.1302376845370463
0.14520750915132727
0.16130315514936872
0.17855164300499532
0.1967630393751041
0.21575085374630434
0.23533260004551929
0.2553294778331088
0.2755582784623392
0.295830737322286
0.31596214566052105
0.3357717991649444
0.35508299796383336
0.37372304662588846
0.39152325416013123
0.40831893401601416
0.4239494040833257
0.43825798669223953
0.4510920086133326
0.4623028010575321
0.47174569967614755
0.47928004456088114
0.4847691802437943
0.48808045569733777
0.489084402786913
0.4875917225479709
0.48366909763481036
0.4775180221340133
0.46933440505438967
0.4593085703269346
0.44762525680490534
0.4344636182637292
0.41999729492279725
0.40439727068371967
0.38783283705453137
0.3704679696775581
0.352461059117349
0.33396491086061725
0.3151267453163635
0.29608819781573864
0.27698531861216313
0.2579485728812759
0.2391028407208829
0.22056741715106
0.20245601211410014
0.18487675047446722
0.16793217201890417
0.1517192319358204
0.13633077404095117
0.12181872352608711
0.10813522919032627
0.09522532467633295
0.08303504495998354
0.07151142450287373
0.06060249725237023
0.05025729664155225
0.04042585558926355
0.03105933806572886
0.022119233886872647
0.013583378197136073
0.005432035492586853
-0.0023535302449760737
-0.009791055548003448
-0.01689727746320855
-0.023687933551561343
-0.030177761888288072
-0.036380501062877685
-0.04230889017907683
-0.047974668854887874
-0.05338857722257516
-0.05856035592865548
-0.06349874613391615
-0.0682114895133917
-0.07269017741814837
-0.0769042082570381
-0.08083541221240856
-0.08446516917436231
-0.08777423685863277
-0.09074275080657666
-0.09335022438517736
-0.09557554878705092
-0.09739699303043492
-0.09879229995777358
-0.09975276958277607
-0.10029811753710238
-0.10045099278095701
-0.10023342210017483
-0.09966681010621539
-0.09877193923616287
-0.09756896975273405
-0.09607743974426905
-0.0943162651247365
-0.09230373963373097
-0.09005753483647641
-0.08759470012382198
-0.08493166271224416
-0.0820777133682111
-0.07902667084122796
-0.07580828129671008
-0.07245130342297476
-0.06897595277546864
-0.06539134601357786
-0.06169547851541393
-0.05787522437781381
-0.053906336416342154
-0.04975344616529086
-0.045370063877670924
-0.040698558478204874
-0.035661302342323994
-0.03014676299787038
-0.024028681622826637
-0.017169678113889565
-0.009421251086493374
-0.0006618778264326289
0.009197480445921582
0.020333686781894122
0.03286608706890781
0.04684919332996994
0.062272683723693864
0.07906140254433583
0.09707536022172511
0.11610973332129818
0.13589486454414415
0.1560962627268984
0.17631460284187264
0.19608572599693475
0.2148806394355629
0.2321895913228263
0.2475889737542995
0.2605753059277275
0.2707459277410045
0.2778048508207312
0.2815627575179924
0.2819334524882285
0.2789258998429599
0.27265340554205353
0.26333594727413473
0.2513001744565815
0.23697940823547925
0.22091364148570922
0.20368474116787974
0.18569662426467612
0.16745586620893252
0.14942001434547775
0.13197698767504168
0.11544507685420236
0.10007294419534143
0.08603962366675036
0.07345460526306909
0.062360738700498075
0.05273496608521597
0.04448483429603812
0.03744842849333141
0.03157990006074694
0.026455089467202854
0.0212738817267012
0.015161512689835316
0.007168569043824964
-0.0037275812223677984
-0.01861832256409386
-0.0386681693779756
-0.06510888548335142
-0.09664340337228039
-0.12740515601759858
-0.15081331177794374
-0.1599435276613147
-0.14752794932520938
-0.10595521107652998
-0.02727627886681594
0.09426182917715023
0.25578441067472
0.44773077933631467
0.6544998855037749
0.8544503161492177
1.0199002948755858
1.11711317955549
1.1175393366004607
1.0299632072322331
0.873551016817341
0.6697395312349775
0.4422360568759817
0.21701844064399217
0.021950498695677712
-0.12836219076407493
-0.23328866429876052
-0.2942155403275166
-0.3153623400669085
-0.3037814876878616
-0.26935831031582746
-0.2246409846082207
-0.17967051259073594
-0.13915075663659532
-0.10604455976254175
-0.08174519830446533
-0.06607638191736653
-0.05729225357549739
-0.05211660477789387
-0.048310901776894705
-0.045416850944819724
-0.04285383414829194
-0.040165283282943616
-0.03701541415606953
-0.03318844934937219
-0.0285886182189881
-0.023240156895458476
-0.017187313049051436
-0.01031363830801326
-0.002549936874606234
0.006159430846314581
0.015855132583659226
0.026564671045295665
0.03830364853219581
0.05107577091253685
0.06487284762164061
0.07967479166200024
0.09544961960332196
0.112153451582435
0.12973051130339522
0.14814712083260956
0.1674455290851921
0.18742699474040328
0.2078680016060184
0.22855249044369702
0.24927185896903722
0.26982496185146154
0.2900181107143436
0.3096650741348958
0.3285870776442253
0.3466128037273671
0.36357839182320023
0.37932743832449833
0.3937109965779559
0.4065875768841121
0.4178222807069304
0.4272801098232907
0.4348296231540343
0.4403468040762108
0.4437150929207439
0.44482510062272024
0.44348095299294554
0.43971254033534996
0.4337151828122679
0.4256790131557029
0.4157889766673176
0.4042248312183969
0.3911611472499066
0.3767673077724711
0.361207508366324
0.3446407571814105
0.3272212780679528
0.30910151967246535
0.2904304600616426
0.2713519029069883
0.2520044644497129
0.2325215735006772
0.21303147144034462
0.19365721221889798
0.17451666235610663
0.15572389381304635
0.13740385293210097
0.11968659953686324
0.10269717495836507
0.08655404321469394
0.07130126353760147
0.056903495739875104
0.04332544209619703
0.03053251034518073
0.018490813689334
0.00716717079503798
-0.0034708942074011123
-0.013455151723787064
-0.02281666669603924
-0.03158579860215739
-0.039792201456261944
-0.04746482380856461
-0.05463190874537861
-0.061320993889127574
-0.06755891139833092
-0.07337178796760747
-0.07878504482768946
-0.0838233977453983
-0.0885108570236671
-0.09287072750152496
-0.0969259309121912
-0.10070373105891045
-0.10423468978647267
-0.10754521609292607
-0.11062759984495285
-0.1134795244849642
-0.11610258100919366
-0.11849771375779282
-0.12066522041482525
-0.12260475200826826
-0.12431531291001639
-0.12579526083587592
-0.12704230684556667
-0.12805351534272663
-0.1288253040749038
-0.12935344413356176
-0.12963310782452275
-0.12966039399724283
-0.12943264604093574
-0.1289466728348611
-0.12819863660219305
-0.12718405291002088
-0.12589779066934387
-0.12433407213508066
-0.12248647290606199
-0.12034864333255124
-0.1179295457576921
-0.1152531101919478
-0.11234087028424491
-0.10920426804568191
-0.10586909080506285
-0.10235465640508512
-0.09867011223399746
-0.09481443522558759
-0.09077643185918884
-0.08653473815967896
-0.0820578196974764
-0.07730397158854745
-0.07222131849439949
-0.0667478146220805
-0.0608112437241912
-0.05432921909886497
-0.047209183589786916
-0.03934840958618885
-0.03063399902283086
-0.020942883380039017
-0.010144614511052148
0.0018209765680619223
0.014932994485105846
0.02912208939430087
0.04426583173911659
0.06021609592037473
0.07680489575829895
0.09381234538186023
0.11096462677056221
0.12793398975434378
0.14433875201362875
0.1597432990793696
0.17365808433294286
0.1855396290062678
0.19480942639828805
0.20115102732525963
0.20436001923172195
0.20429184467466058
0.2008989418979479
0.19423074483231992
0.1844336833652927
0.17175153472647395
0.15652611467803884
0.1391964270806113
0.12029847148164471
0.10046524311550699
0.08032555210373668
0.0603288760835351
0.04098293970130076
0.022730506262773117
0.005915637545018653
-0.009230437613752463
-0.022549925618822943
-0.03395496870519028
-0.04342764493761601
-0.0510199682106522
-0.05685388824857255
-0.06111144576149398
-0.06390670582143466
-0.06571948395164079
-0.06725905812442619
-0.06936255368788499
-0.07299494336590337
-0.0792490472581813
-0.08934553284018379
-0.10463291496320534
-0.12658115247052493
-0.15372450886862515
-0.1804166831125147
-0.20038745509392775
-0.20694173769660748
-0.1929595767963019
-0.15089615126075664
-0.07278025142730128
0.048440285535263986
0.2099742800715956
0.40168741011417575
0.6082746054161088
0.8092559005618843
0.9789764349679715
1.0866064528816495
1.0994281926203968
1.017666001875113
0.8641705738733276
0.6625791467286325
0.43696864149880693
0.2118556621855076
0.01219649573358133
-0.14289468592693266
-0.25209626073377034
-0.3172294313769218
-0.3425527116726821
-0.3347846324783262
-0.30310328828715355
-0.2591459133367449
-0.21477906532947405
-0.1750907794923963
-0.14253033241123803
-0.1182927392911572
-0.10231826763694159
-0.0933005957411304
-0.08869756176222063
-0.08543781827482164
-0.0828999817336701
-0.08065212308570449
-0.07829740195028181
-0.07552789388054941
-0.07212459036343577
-0.0679573988196414
-0.0629851426036558
-0.05725408613618681
-0.05076016733179473
-0.04341231094329487
-0.0351504491440392
-0.025928387182504706
-0.015713803382276834
-0.004488249142017821
0.007752851064477649
0.02100019968830685
0.035230626105497126
0.050407086616923
0.06647866444840468
0.08338056975061872
0.10103413959913338
0.11934683772389915
0.13823263537666042
0.15769273455851343
0.1775067613254114
0.19741998775328667
0.21719023114110694
0.23658785401075733
0.2553957641070914
0.27340941439797917
0.29043680307420894
0.30629847354954354
0.32082751446075
0.33386955966751397
0.3452827882525349
0.3549379245214464
0.3627182380028565
0.36851954344835963
0.37225025543976736
0.373833003057403
0.37320489800628537
0.37031570582017603
0.3649799290892947
0.3571867102173041
0.3471931122380293
0.33524619003476536
0.3215827218133591
0.3064311581030428
0.2900168680148037
0.27255660397145
0.25425684168376395
0.23531378015061047
0.2159133416588914
0.19623117178349236
0.17643263938740217
0.15667283662157738
0.13709657892506116
0.1178384050249296
0.09902257693624601
0.08076307996215917
0.06316362269384918
0.04631763701048838
0.030308278079342575
0.015208424355656225
0.0010806775827511411
-0.012022637208019035
-0.02405947169729911
-0.03499805355521528
-0.04481744063754864
-0.05355676966682964
-0.061279503632482246
-0.0680464154125186
-0.07391721441830214
-0.07895656160925624
-0.08322866984249634
-0.08679506215764826
-0.08971457148289966
-0.09204334063500634
-0.09383482231927423
-0.09513977912957686
-0.09600628354834248
-0.09647971794656122
-0.09660277458378405
-0.09641545560812072
-0.09595507305624186
-0.09525624885337683
-0.09435091481331628
-0.09326831263841107
-0.09203499595178988
-0.09067671225466659
-0.08922189138179681
-0.08769722441857818
-0.08612671233897395
-0.08453166600550374
-0.08293070616924661
-0.08133976346984284
-0.07976869675653982
-0.07821345842995042
-0.07667983306054683
-0.07516986606512599
-0.07368369310035508
-0.07221954940378117
-0.07077376979383979
-0.06934078866984791
-0.06791314001200373
-0.06648145738139416
-0.06503447391998765
-0.06355902235063317
-0.062040034977067574
-0.06046054368391299
-0.058801679936669
-0.05704267478172251
-0.055160858846346444
-0.05313166233869221
-0.050928615047797735
-0.04852334634358689
-0.04588558517686243
-0.04298316007931282
-0.03978199916351512
-0.03624613012291964
-0.032337680231869066
-0.028027042541252045
-0.02333146702913836
-0.01810209920148549
-0.012173505290828973
-0.005398351079240332
0.0023526494790354346
0.011190734257603377
0.0212090929578896
0.03248286710915656
0.04506915006851952
0.059006987020910756
0.07431737497909563
0.09100326278370387
0.10904955110315603
0.1284230924337647
0.1490726910996326
0.1710466718772826
0.19410577825208003
0.21754892102547357
0.24073201010124698
0.263072017466213
0.28404373184463627
0.30317974025484906
0.32007042800914676
0.3343639787138304
0.34576637426923884
0.35404191469417845
0.35901795940645553
0.3605827225974173
0.35868225446248625
0.3533204034910794
0.34455635885364877
0.3326302385209346
0.3181691964630511
0.30180691480292376
0.28412133003009055
0.2656346330006414
0.24681326893734132
0.22806793742949538
0.20975359243305833
0.19216944227059818
0.1755589496312388
0.1601098315707527
0.14595405951151802
0.1331678592424853
0.12177171091924867
0.11361718487864506
0.10886269646524716
0.10499954689117073
0.0999935481741069
0.09228610008390015
0.08079484462588532
0.0649218826333776
0.04455128886757884
0.02004286645555313
-0.00776799372344307
-0.03757031303798529
-0.06757752510456809
-0.09552747578745036
-0.11868242319881887
-0.133345217789698
-0.12857177510420953
-0.09143478207420347
-0.01422013956172602
0.10540405017627737
0.2643874834884529
0.45429765532818434
0.6613198592547233
0.8657477817471898
1.0335556668215056
1.1321059904707478
1.1434932119887264
1.0647178550827807
0.9076865078732475
0.6983722434669641
0.46744978389209857
0.24294713323284195
0.045870099036676756
-0.11029434590381118
-0.21957428105060323
-0.2831673193136551
-0.3037093890648287
-0.2920819007870722
-0.2602321464462448
-0.2180610671447733
-0.17342325312164839
-0.13212694375226366
-0.0979340275486701
-0.07256004215942644
-0.055443380645774185
-0.04396189526761127
-0.036465234715436244
-0.031625099278560456
-0.028318433254651526
-0.02562742494973723
-0.022839506678221225
-0.019447354762877754
-0.015148889534837933
-0.00984727533361675
-0.003650920507076747
0.0031265225885357267
0.010421738572246276
0.018531978945893465
0.02751744731413344
0.037425862604528716
0.0482924254949285
0.06013981841340134
0.07297820553831263
0.08680523279825805
0.10160602787208602
0.11735320018893933
0.13400684092818524
0.15151452301944332
0.16981130114263498
0.18890823427126788
0.20872351927024557
0.22904084279476777
0.24965036625503606
0.27034874161574124
0.29094019201071364
0.3112383976774038
0.331064032175809
0.35024425804574805
0.36861272680699164
0.38600957895915294
0.40228144398173654
0.4172811583279278
0.4308560181724008
0.4428435357813876
0.45308655730345754
0.4614344178670381
0.4677429415804697
0.4718744415319638
0.47364451485624937
0.4727201095728192
0.46924428839321763
0.4634258586933621
0.45546571429274485
0.4455568354544905
0.43388428888528724
0.4206252277354535
0.4059488915989137
0.3900166065131498
0.3729817849592864
0.3549899258620516
0.3361786145897254
0.3166775229542525
0.29660840921111314
0.2760851180594383
0.2552135806419581
0.23409181454495487
0.21281028898036985
0.1914788449813458
0.17024512165588598
0.14925320544635448
0.12863926923865363
0.10853157236233077
0.08905046059053179
0.07030836613996475
0.05240980767097731
0.035451390287514
0.019505719285931773
0.004566890696834747
-0.009385126846040065
-0.02236743295171302
-0.034394479006519325
-0.04547806817412366
-0.055627355395487785
-0.06484884738889189
-0.0731463297296668
-0.08052039851529645
-0.08696875811414388
-0.09248646350353451
-0.09706592143810885
-0.1006968904498266
-0.10336648084795551
-0.10505934150804778
-0.10578717471964146
-0.10562099837071312
-0.1046369372867543
-0.10290846807057522
-0.10050641910229717
-0.09749897053935401
-0.0939516543164971
-0.08992735414578722
-0.08548630551660057
-0.08068609569562937
-0.07558166372687913
-0.0702253004316594
-0.06466664840860732
-0.05895270203366535
-0.05312746386398227
-0.04723188516806438
-0.041321537296814675
-0.035454250718377114
-0.029686060436791804
-0.024071205991986318
-0.018662131459793126
-0.013509485451932925
-0.008662121116026232
-0.004167096135583654
-6.963858519119445e-05
0.003603861342290477
0.006873405864191814
0.009767997751434394
0.012318435239049286
0.014557312026170468
0.016519017276036108
0.018239735615991775
0.0197574471374865
0.021111927396074228
0.02234474741141708
0.023499273667279243
0.024620668111530162
0.025726303325950124
0.026882871154505453
0.02826106652454363
0.03002476522117663
0.03232923656562832
0.03532106268748117
0.03913607009133865
0.04389915343565921
0.049726484874398055
0.05672563009760385
0.06499554833146501
0.07462659233826056
0.08570050765840954
0.09828688277689149
0.1124349531961216
0.12824687568247972
0.14570352742162782
0.1642923277210547
0.18349662461253433
0.20282559019931473
0.22181422065616274
0.24002333622941863
0.2570395812368961
0.27247542406793274
0.2859691571834297
0.2971848971157595
0.30581258446886067
0.311567983918162
0.31419268421062524
0.3134540981647408
0.3091138334739685
0.3011058766940291
0.2900561367683547
0.2766223389564341
0.2614117306619694
0.2449810814329641
0.2278366829616839
0.21043434908460457
0.19317745767943237
0.1764106733352266
0.1604260180410752
0.14546503592076024
0.13171879324226063
0.11932787841786206
0.10838240200410638
0.09892199670176073
0.09093581735588745
0.0843625409558036
0.07927424970439331
0.0771858881160459
0.07623623186104674
0.0740836056064679
0.06897133201791762
0.059727731759522174
0.04576612349396007
0.027084826319199562
0.0042684402858414044
-0.021510051452092484
-0.04849211594267816
-0.074334222235385
-0.0962620932950383
-0.10565761288683365
-0.08898475949037718
-0.03687068992631958
0.05551690922218521
0.18845509026690438
0.3576582752653787
0.5542782509093221
0.7649341120054534
0.9670775993309849
1.1228482260186143
1.2038459856455639
1.1961404946671195
1.1002709924162888
0.9312463411037603
0.7164304192025174
0.4863060879672581
0.2676035125426979
0.07965854405203078
-0.06564806380998225
-0.16389065477728482
-0.21690840264883893
-0.22799209790061822
-0.20923831583194438
-0.17215854276947626
-0.12620917442049065
-0.07879151587307627
-0.035251781596055465
0.0011117800972941655
0.029007038865851875
0.04933106874787676
0.06484930104947101
0.0769617154086926
0.08670630882036105
0.09497617215792407
0.10251949017349855
0.10993954149785268
0.11769469864040102
0.12609842798922133
0.13531928981103863
0.14538093825122822
0.15616212133383356
0.16739668096152788
0.17875192017871824
0.19044469971718847
0.20255808000079878
0.21508457591342767
0.22800031453312825
0.24126612330834982
0.2548283585322835
0.2686189086887067
0.28255519445207716
0.2965401686874468
0.3104704138029136
0.3243003189778151
0.33800779528587094
0.3515846852796525
0.3650949849753484
0.37838748763178215
0.39128958905120814
0.403639924522064
0.41528836881900194
0.42609603620296593
0.43593528042107443
0.44468969470667685
0.45225411177939445
0.45853460384502126
0.4634484825956311
0.46692429920949424
0.46890184435109883
0.46933214817120156
0.46817748030675665
0.4654113498809541
0.4610185055032209
0.4549949352692033
0.44734261670699255
0.4378377790861383
0.42660016495519415
0.4139568357498462
0.40016248926752745
0.38542077406196806
0.369923689969235
0.35385227791987833
0.33737661993882356
0.3206558391454712
0.3038380997536565
0.28706060707159486
0.27044960750198677
0.2541203885419615
0.23817727878303016
0.22271364791120313
0.20781190670685518
0.19354350704484377
0.17996894189445556
0.16713774531936076
0.15508849247771572
0.14384879419665497
0.13343516720251555
0.12385302807150836
0.11509682783817098
0.10715005863151186
0.09998525367496588
0.09356398728637191
0.08783861533466765
0.08278761287162043
0.07837858439947315
0.07455266863569916
0.07125377426629104
0.06842864359501191
0.06602685254337723
0.0640008106506462
0.062305761073843315
0.06089978058774509
0.05974377958487789
0.05880150207552897
0.05803952568773289
0.057427261667284527
0.05693695487773125
0.056543683800372696
0.056225360534265925
0.05596273079622114
0.05573937392080193
0.055541702860327904
0.05535896418487196
0.05518323808226177
0.055009438358079296
0.054835312435661185
0.054661441356097955
0.05449099151406349
0.05432429743437418
0.05415902042754599
0.05399397007387813
0.05381983693972851
0.05362650959909643
0.05340507471377279
0.05314781703333721
0.05284821939516018
0.05250096272440383
0.052101926034018545
0.0516481864247466
0.051138019085120445
0.05057089729146146
0.049947492407883765
0.049269673886290735
0.048540509266374814
0.04776426417562098
0.046946404403524225
0.04609445300499264
0.045219312467239925
0.04433342438775427
0.04345042845181599
0.04258516243249259
0.04175366219064378
0.04097327290465381
0.04024662027722156
0.03962692614479839
0.03923098400318793
0.039175455407134324
0.039576498256619796
0.040549766796853993
0.042210411618274095
0.044673079656559596
0.048051914192608854
0.052460554852565254
0.05801213760779366
0.06481929477488654
0.07299415501568754
0.08264834333724339
0.09389298109186801
0.10687667279551485
0.12170729468098808
0.1380451881187405
0.15550767632761248
0.1737136432101667
0.19228353335273385
0.21083935202530213
0.22900466518164334
0.2464045994592037
0.26266563392571113
0.2774039874349267
0.2902194946880367
0.3007120507276553
0.308483111280145
0.3131356927555592
0.3142708080256627
0.31157403848222254
0.3054133752039769
0.2963116501235262
0.28476524790482266
0.27124410594316384
0.2561917143651357
0.24002511602872034
0.2231349065231671
0.2058852341691087
0.18861380001851233
0.17163185785462887
0.15522421419209348
0.13964872421028973
0.12513336104727524
0.11187821788335951
0.10005693586919025
0.08953058605526432
0.08012155678915997
0.07191206343725147
0.064779288982246
0.05840569545683028
0.052255766771102524
0.0455731112233534
0.03738046150002133
0.026479674675731577
0.01145174203171774
-0.009041819922765162
-0.03544935740376293
-0.06658042708071549
-0.09933576648998332
-0.12870729403467004
-0.14777810898481225
-0.14801994649981995
-0.1224759710240775
-0.06117951313224425
0.04183282140437998
0.18647227177094666
0.36659792210961184
0.5700167015185513
0.77919483735207
0.9650079087897543
1.0915226158615294
1.1361227232194917
1.090536903153982
0.9608353808598427
0.7674173384935438
0.5406683427516258
0.3101156939836218
0.09946403845846666
-0.07486218291571174
-0.2037187345919668
-0.28524158638361385
-0.32357467086598
-0.32393198174975113
-0.29876236951854335
-0.25941435276653996
-0.2149726454671531
-0.17225815697297248
-0.13582799201562948
-0.10797545070603218
-0.08873002853422138
-0.07540531521460801
-0.06556360005864428
-0.05840164117239649
-0.053189173856029004
-0.049266568446552694
-0.04604498886586883
-0.04300639262078858
-0.039703537074724835
-0.035768220069137435
-0.030927513580243746
-0.024983804628389283
-0.017810273818830658
-0.009350895341725889
0.0003795630278835005
0.01129553993004305
0.023240680419890275
0.03598783596769224
0.04932246150858178
0.06350490862820803
0.07857058441580185
0.09447550289084646
0.11115978858608862
0.1285476765474572
0.14654751233411045
0.1650517520184616
0.18393696218609393
0.20306381993587405
0.22227711287984264
0.2414057391432643
0.26026270736467594
0.2786451366957844
0.29633425680152575
0.31309540793937046
0.3286936044412971
0.3430356319825792
0.3559584920527184
0.3672686196029976
0.37680010745469017
0.3844147062989893
0.39000182469704764
0.39347852907999176
0.3947895437488813
0.3939072508747454
0.3908316904985587
0.3855905605312565
0.378239216753722
0.3688606728168057
0.35756560024129214
0.34449232841793986
0.3298068446074634
0.3137027939405035
0.296401471817622
0.27811314882080207
0.25895896369314864
0.23920124237772852
0.21910366712708482
0.1989138705771768
0.1788634357473291
0.15916114140636362
0.1399673379243812
0.12141663563755986
0.10362759348997906
0.08670272080915116
0.07072847730588787
0.055775273074422704
0.041897468592349586
0.029133374720586636
0.017505252703467554
0.007019314168685231
-0.0023342788727344146
-0.010577879008722008
-0.017677057295735023
-0.02368585324820146
-0.028699401797874155
-0.03281031011999356
-0.03610865763324918
-0.03868199599980597
-0.04061534912530878
-0.04199121315885649
-0.0428895564930362
-0.04338781976388655
-0.04356091585092325
-0.04348122987713999
-0.043215193863082216
-0.04280572943547624
-0.0422852888252431
-0.04168378155635831
-0.04102858939627718
-0.040344566355921305
-0.03965403868967816
-0.038976804895411166
-0.038330135714449584
-0.03772877413159646
-0.03718493537511913
-0.036708306916758554
-0.036306048471726
-0.03598279199869854
-0.03574064169982677
-0.035579174020731075
-0.035495437650498285
-0.03548395352168756
-0.03552871144340668
-0.035617692963305816
-0.035749709801332075
-0.03591954287570942
-0.03612013643656498
-0.03634260433369706
-0.0365762300165752
-0.03680977512564955
-0.037040513081950964
-0.03726879848171978
-0.037493185262723855
-0.037710396962401846
-0.03791532671786294
-0.03810103726588711
-0.03825876094292474
-0.038377899685096944
-0.03844602502819505
-0.0384488781076819
-0.03837036965868979
-0.03819258001602189
-0.03789575911415361
-0.03745832648722844
-0.036856871269061314
-0.03606615219314016
-0.035094526970251755
-0.033872005709409424
-0.0322356421026893
-0.03003375348929238
-0.027126276122471083
-0.02338476516952309
-0.018692394711801494
-0.01294395774471356
-0.0060460757416073525
0.002080839843037422
0.011503474356429752
0.022276877497495132
0.03444448005110681
0.048038093888119186
0.06307791196530542
0.07967424403985222
0.09762029820675625
0.11635053452531588
0.13532870419154225
0.15405006023608953
0.17204135752429897
0.18886085275624703
0.20409830446665245
0.21737497302492764
0.2283436206352068
0.23668851133627172
0.2421254110016269
0.2444014635913161
0.2432925988548999
0.23860360273387765
0.23012866870669735
0.21815070537994838
0.20333212415604976
0.1862898952443388
0.16760486626677384
0.14781819341678798
0.12742178233368623
0.10685806343766989
0.08651999192993624
0.06675104779262682
0.047845235788779444
0.030047085462441767
0.013551651138545619
-0.0014954880769861671
-0.014998228297289777
-0.02690994085459183
-0.03723347230013573
-0.04574540526317136
-0.05212814324962974
-0.057644008289106444
-0.0635000904558948
-0.07071674797206771
-0.08012760720748319
-0.09237956267981862
-0.1079327770545029
-0.12706068114480612
-0.14984997391175123
-0.17620062246413945
-0.20721628920847548
-0.24091962837507708
-0.26073508394052275
-0.25300530640872265
-0.20856212491654752
-0.12272654723375469
0.004691240236821982
0.16939187245922777
0.36258680576497376
0.5709983178521665
0.7768595077858813
0.9555697093704745
1.0725953011516534
1.106390610191293
1.0500540834161822
0.9109843494484302
0.7108802186047438
0.48470869527154603
0.26257976788579396
0.06451101119750055
-0.09538643814932765
-0.20949466154741092
-0.27668985442584443
-0.3022430494960011
-0.2931892333662458
-0.26082327247962683
-0.21675803159016052
-0.17006585361831045
-0.12729640398816966
-0.09247765956219817
-0.06711590864149683
-0.050066729124476725
-0.03851124852636945
-0.031105900479502298
-0.02679862451618532
-0.024654880156701215
-0.023857646909338934
-0.023707424270361575
-0.023622231724025344
-0.023137608742578135
-0.021906614786243332
-0.019699829303239935
-0.016405351729777706
-0.012028801490037773
-0.006693317996211058
-0.0006395606484494807
0.005880110538808636
0.01321541816851306
0.021498335438736436
0.03077263266122327
0.04106471843447297
0.052376680312106225
0.06468360162709057
0.0779426500981394
0.09209379183259651
0.10705979132647422
0.12274621146449663
0.1390414135200138
0.15581655715504455
0.17292560042032468
0.190205299755194
0.20747533226673626
0.22462391666412077
0.24146754316454866
0.25774123831797974
0.27320166938744583
0.287627144349099
0.30081761189225237
0.31259466141928655
0.32280152304574605
0.33130339649026797
0.3379891823472568
0.3427702179235086
0.3455794829485697
0.3463715978651135
0.34512279917854366
0.3418290202705738
0.3365045194123885
0.3291821789612503
0.31978393949925815
0.30843517430767625
0.29538182168110294
0.28085960258925224
0.26509402067690435
0.24830036226400437
0.23068369634554325
0.21243887459166863
0.1937505313476386
0.17479308363376525
0.15573073114552238
0.13671745625349158
0.11789702400331098
0.09940298211579529
0.08135866098679964
0.06387717368733684
0.04706141596352776
0.031004066236554197
0.0157875856027542
0.0014842178335675513
-0.011844010624492078
-0.024144825115318007
-0.03535223734902403
-0.04549502163610426
-0.054646552254702975
-0.06287797015879117
-0.07025818297811455
-0.0768538650182225
-0.08272945726048495
-0.0879471673620476
-0.09256696965587913
-0.09664660515073435
-0.10024158153117115
-0.10340517315755784
-0.10618842106605364
-0.10864013296862077
-0.11080688325302857
-0.11273301298283805
-0.11446062989742065
-0.1160296084119424
-0.11747758961737252
-0.11884017181463913
-0.12015465426037941
-0.12145980328368458
-0.12279229559186394
-0.12418657456802873
-0.12567483327137646
-0.12727740490089778
-0.1289867089157124
-0.13078869551518285
-0.13266708157447046
-0.13460262056196445
-0.13654682479302233
-0.13847160104119272
-0.14036448949699398
-0.142211194709391
-0.14399558558576958
-0.14569969539195696
-0.14730372175221745
-0.14878602664924395
-0.15012313642417072
-0.15128974177656707
-0.1522586977644312
-0.15300102380420044
-0.15348590367075282
-0.15368068549739453
-0.15355088177586607
-0.15306016935634636
-0.15217038944745093
-0.15084154761622515
-0.1490318137881534
-0.14669752422012428
